1220
1274
1290
1292
1296
1306
1318
1321
1348
1372
1392
1395
1408
1449
1600
1469
1454
1476
1417
1460
1230
2133
2479
1597
1507
1515
1526
1530
1552
1552
1535
1550
1570
1627
1671
1689
1711
1728
1739
1754
1792
1809
1833
1853
1850
1877
1915
2070
1933
1942
1951
1951
1945
1607
3767
2193
2017
1984
2002
2005
2023
2026
2013
2000
2001
2027
2094
2112
2125
2128
2123
2138
2171
2188
2185
2195
2220
2375
2226
2193
2197
2189
2191
1995
2531
3583
2237
2129
2114
2108
2081
2096
2059
2007
1977
1982
2026
2059
2042
2030
2007
1994
1997
1987
1993
1983
1966
2010
2032
1924
1889
1862
1851
1810
1491
4095
1863
1739
1696
1683
1664
1659
1629
1584
1535
1535
1570
1585
1593
1574
1564
1535
1524
1522
1520
1518
1513
1524
1616
1552
1486
1483
1470
1466
1408
1414
3199
1535
1424
1412
1409
1396
1382
1376
1341
1326
1326
1351
1396
1382
1374
1360
1349
1347
1392
1337
1344
1326
1334
1408
1359
1304
1293
1280
1264
1212
1099
2903
1322
1236
1229
1232
1232
1234
1238
1201
1218
1232
1266
1345
1372
1379
1393
1406
1434
1472
1518
1552
1592
1794
1712
1655
1680
1703
1738
1605
2067
3021
1931
1858
1872
1905
1938
1949
1966
1965
1969
2006
2096
2159
2189
2207
2221
2247
2283
2303
2352
2384
2489
2480
2417
2427
2423
2433
2415
2207
4095
2485
2458
2429
2407
2415
2397
2383
2339
2317
2309
2343
2371
2365
2347
2321
2304
2288
2284
2267
2255
2256
2411
2239
2176
2151
2127
2097
1757
3071
2878
2057
1950
1922
1899
1869
1849
1803
1786
1744
1744
1776
1774
1746
1743
1725
1709
1703
1697
1694
1682
1701
1840
1669
1630
1607
1588
1563
1249
2334
2279
1533
1454
1414
1415
1392
1369
1350
1298
1296
1310
1349
1364
1342
1356
1328
1329
1315
1349
1359
1361
1482
1429
1362
1360
1356
1351
1308
1216
2962
1455
1362
1361
1386
1399
1424
1426
1425
1450
1472
1527
1609
1629
1658
1680
1707
1741
1803
1835
1870
2001
2011
1947
1968
1989
2020
2005
1813
4095
2175
2097
2103
2117
2118
2143
2142
2123
2110
2127
2181
2239
2247
2257
2256
2249
2256
2274
2263
2283
2288
2352
2359
2274
2261
2239
2230
2191
1947
4095
2182
2128
2099
2090
2067
2035
2003
1955
1905
1899
1918
1935
1909
1885
1851
1826
1789
1766
1737
1726
1709
1695
1695
1776
1627
1596
1577
1535
1513
1104
3303
1632
1434
1392
1376
1351
1333
1318
1262
1234
1225
1249
1283
1300
1274
1266
1254
1258
1253
1264
1248
1272
1268
1269
1280
1305
1394
1296
1285
1284
1280
1264
924
2947
1450
1306
1269
1280
1282
1298
1312
1283
1294
1296
1345
1408
1421
1433
1456
1457
1472
1499
1535
1568
1596
1600
1642
1685
1870
1726
1714
1753
1762
1777
1554
2399
2791
1919
1843
1853
1870
1879
1895
1885
1872
1875
1901
1959
2011
2025
2038
2031
2046
2069
2096
2110
2114
2127
2134
2153
2237
2207
2143
2117
2135
2127
2093
1905
4095
2161
2111
2083
2077
2073
2061
2039
1994
1968
1970
2011
2039
2029
2022
2006
1996
1983
1984
1984
1979
1980
1967
1963
1942
1959
2096
1927
1885
1879
1871
1853
1472
2813
2487
1840
1747
1722
1713
1701
1687
1646
1617
1600
1595
1642
1646
1635
1631
1619
1601
1597
1600
1605
1595
1586
1591
1577
1575
1580
1610
1643
1553
1552
1534
1522
1504
1147
3379
1646
1488
1459
1453
1465
1457
1433
1408
1397
1403
1425
1475
1486
1475
1488
1494
1511
1495
1521
1527
1552
1535
1557
1569
1579
1684
1679
1605
1616
1610
1620
1598
1408
3447
1744
1595
1648
1628
1664
1680
1689
1670
1685
1706
1744
1807
1817
1835
1840
1842
1862
1891
1920
1931
1947
1987
2113
2064
2007
2005
2015
2023
1991
1805
4095
2129
2037
2021
2022
2030
2023
2077
1983
1959
1967
2009
2055
2067
2057
2047
2039
2042
2045
2055
2047
2054
2038
2056
2201
2039
2007
1999
1996
1975
1585
3281
2491
1963
1887
1875
1859
1839
1821
1785
1744
1729
1715
1802
1815
1781
1765
1759
1751
1746
1737
1743
1727
1718
1712
1719
1803
1728
1664
1662
1659
1648
1593
1453
3615
1692
1566
1531
1525
1518
1508
1488
1452
1434
1426
1472
1515
1518
1509
1499
1501
1506
1511
1517
1517
1520
1516
1517
1520
1552
1703
1554
1535
1525
1530
1520
1155
2610
2055
1573
1516
1492
1495
1514
1510
1489
1483
1488
1520
1584
1600
1607
1622
1616
1630
1648
1680
1660
1684
1694
1706
1728
1911
1745
1737
1756
1758
1756
1600
2114
2957
1883
1793
1790
1808
1814
1819
1815
1807
1794
1813
1868
1914
1919
1936
1926
1945
1961
1983
1991
2011
2017
2063
2141
2141
2059
2031
2019
2019
2009
1634
4095
2230
2021
1978
1967
1968
1959
1947
1903
1874
1871
1895
1958
1968
1966
1954
1953
1935
1936
1945
1947
1936
1936
1935
1951
2091
1925
1903
1882
1859
1851
1709
2134
3271
1904
1776
1751
1744
1743
1725
1695
1664
1643
1649
1689
1728
1713
1703
1688
1680
1683
1670
1671
1671
1666
1653
1657
1648
1664
1798
1642
1626
1618
1562
1583
1216
2726
2123
1615
1523
1520
1510
1501
1489
1456
1421
1418
1424
1488
1518
1511
1505
1499
1502
1498
1517
1529
1530
1535
1535
1553
1605
1664
1573
1579
1566
1569
1562
1212
3195
1722
1612
1572
1552
1566
1577
1583
1558
1552
1572
1600
1647
1669
1674
1681
1680
1686
1709
1719
1741
1747
1763
1879
1838
1783
1776
1776
1780
1776
1517
3819
1915
1799
1803
1808
1814
1810
1821
1792
1779
1791
1849
1917
1916
1933
1929
1926
1939
1962
1975
1998
1999
2032
2159
2077
2023
2034
2033
2023
1998
1809
4095
2093
1995
1973
1975
1974
1961
1936
1907
1885
1887
1935
1971
1950
1959
1967
1945
1930
1936
1937
1939
1941
1931
1936
1986
1999
1906
1903
1889
1871
1854
1497
4095
1957
1815
1790
1792
1777
1771
1727
1683
1669
1648
1684
1715
1715
1711
1702
1683
1681
1678
1688
1692
1677
1676
1664
1675
1671
1731
1731
1658
1648
1624
1618
1584
1236
3679
1699
1561
1521
1510
1508
1501
1486
1452
1417
1424
1454
1497
1502
1488
1490
1482
1491
1491
1535
1469
1516
1520
1520
1553
1691
1551
1518
1522
1520
1516
1424
1648
2907
1615
1507
1495
1501
1509
1496
1501
1485
1477
1488
1535
1567
1572
1584
1582
1570
1599
1633
1655
1680
1697
1715
1834
1829
1779
1778
1787
1808
1801
1506
3923
2003
1898
1905
1918
1949
1965
1979
1975
1968
1989
2060
2141
2178
2191
2207
2223
2238
2258
2288
2303
2315
2323
2356
2538
2375
2367
2374
2381
2385
2241
2559
4095
2339
2319
2299
2287
2271
2249
2221
2183
2149
2159
2203
2219
2195
2182
2173
2154
2127
2117
2106
2089
2064
2039
2011
2015
2096
1969
1894
1869
1833
1803
1729
1573
3791
1799
1648
1600
1568
1522
1488
1456
1408
1356
1346
1371
1388
1381
1360
1335
1323
1296
1276
1264
1264
1259
1236
1232
1222
1216
1245
1338
1222
1192
1184
1168
1165
1142
861
3045
1296
1122
1115
1116
1128
1118
1117
1092
1088
1105
1152
1200
1225
1230
1233
1251
1253
1280
1298
1332
1344
1373
1389
1397
1424
1481
1638
1515
1526
1535
1565
1584
1472
1808
2963
1765
1677
1680
1712
1726
1744
1771
1773
1781
1824
1878
1924
1953
1973
2001
2011
2046
2073
2107
2147
2167
2177
2199
2353
2292
2255
2261
2256
2271
2259
1967
4095
2375
2295
2279
2278
2277
2275
2225
2240
2230
2222
2259
2314
2319
2303
2307
2285
2270
2279
2271
2273
2262
2256
2227
2237
2381
2224
2166
2159
2127
2105
1867
2627
3431
2111
1984
1961
1939
1927
1903
1869
1811
1781
1776
1808
1829
1808
1782
1780
1747
1729
1725
1713
1691
1685
1671
1649
1645
1690
1691
1600
1570
1535
1520
1504
1109
3382
1648
1446
1409
1392
1378
1362
1334
1308
1276
1272
1298
1350
1314
1344
1340
1328
1331
1350
1360
1360
1361
1378
1370
1381
1392
1405
1435
1559
1448
1431
1426
1440
1456
1200
2106
2461
1535
1448
1428
1450
1456
1462
1450
1453
1456
1488
1564
1574
1600
1593
1609
1621
1626
1672
1682
1707
1702
1731
1745
1773
1826
1859
1803
1815
1814
1823
1827
1469
3511
2033
1874
1843
1859
1856
1869
1886
1875
1872
1895
1929
1978
1986
1998
2001
2000
2019
2083
2047
2069
2095
2095
2096
2129
2283
2139
2127
2124
2127
2114
1763
3167
2815
2160
2091
2081
2075
2067
2055
2023
1984
1968
1998
2057
2077
2064
2062
2037
2022
2021
2013
1997
2001
1968
1995
1988
1996
2143
1969
1929
1920
1904
1885
1618
2543
2891
1904
1790
1763
1741
1715
1703
1671
1626
1605
1617
1664
1676
1658
1646
1637
1626
1618
1608
1606
1591
1595
1578
1582
1577
1616
1723
1584
1534
1535
1527
1513
1424
1510
3211
1592
1462
1437
1434
1431
1410
1403
1365
1355
1373
1424
1456
1444
1458
1451
1449
1462
1463
1478
1481
1488
1499
1501
1505
1527
1582
1634
1535
1535
1552
1553
1559
1168
3019
1831
1608
1579
1582
1585
1600
1609
1584
1577
1595
1637
1694
1711
1697
1712
1728
1743
1761
1785
1811
1840
1854
1858
1879
1926
2099
1950
1950
1967
1926
1968
1725
2638
2991
2091
2007
2006
2004
2014
2007
1984
1952
1942
1978
2045
2069
2082
2077
2089
2079
2079
2085
2096
2102
2098
2102
2097
2115
2189
2147
2086
2077
2063
2043
1982
1734
4095
2064
1953
1922
1905
1889
1875
1845
1808
1780
1783
1814
1861
1857
1840
1823
1811
1797
1790
1783
1781
1777
1773
1761
1751
1748
1766
1854
1741
1712
1696
1676
1664
1261
2967
2081
1677
1584
1562
1552
1535
1518
1488
1456
1450
1484
1535
1535
1524
1520
1497
1490
1494
1502
1505
1506
1524
1505
1517
1515
1535
1661
1535
1508
1504
1506
1506
1154
2447
2115
1552
1441
1535
1488
1492
1509
1497
1475
1491
1520
1574
1602
1593
1595
1607
1609
1632
1648
1665
1695
1705
1708
1751
1933
1775
1765
1772
1781
1783
1703
1935
3312
1945
1847
1844
1863
1866
1892
1868
1861
1851
1874
1947
1987
2011
2015
2017
2011
2039
2035
2047
2061
2061
2064
2090
2170
2143
2063
2063
2059
2033
2023
1689
4095
2113
1997
1959
1967
1955
1939
1926
1885
1845
1851
1895
1933
1925
1920
1907
1898
1890
1879
1879
1872
1867
1855
1851
1843
1840
1872
1918
1806
1790
1773
1748
1728
1322
3439
1947
1703
1655
1642
1622
1616
1595
1555
1526
1513
1552
1599
1595
1584
1588
1578
1566
1560
1571
1569
1570
1574
1575
1565
1574
1577
1568
1600
1691
1600
1581
1575
1566
1568
1353
2113
2711
1653
1535
1535
1533
1520
1520
1505
1475
1467
1489
1535
1573
1584
1578
1596
1588
1599
1601
1623
1625
1641
1659
1658
1664
1673
1691
1772
1720
1712
1744
1701
1707
1696
1346
3455
1875
1729
1703
1711
1712
1715
1725
1714
1698
1711
1769
1807
1799
1805
1809
1809
1794
1825
1843
1856
1875
1878
1898
1925
2083
1949
1922
1930
1931
1937
1884
1847
3791
2030
1941
1941
1940
1957
1949
1955
1931
1921
1936
2019
2042
2045
2046
2043
2038
2062
2063
2081
2085
2078
2096
2207
2161
2093
2090
2071
2058
2027
1726
4095
2145
2031
1982
2005
1939
1951
1907
1869
1830
1821
1865
1920
1926
1915
1904
1889
1879
1870
1862
1865
1855
1852
1904
1905
1803
1778
1749
1739
1714
1303
3799
1873
1648
1606
1590
1570
1551
1510
1446
1368
1419
1424
1489
1490
1481
1469
1462
1457
1440
1432
1429
1420
1408
1427
1488
1488
1399
1381
1350
1342
1328
905
3175
1563
1320
1293
1288
1285
1280
1268
1232
1205
1210
1264
1335
1348
1326
1395
1417
1424
1434
1458
1478
1493
1508
1520
1529
1585
1680
1671
1622
1631
1643
1651
1643
1296
3919
1835
1706
1707
1714
1726
1738
1744
1728
1713
1735
1804
1869
1904
1917
1930
1936
1994
1981
1995
2023
2038
2053
2055
2071
2079
2098
2135
2179
2117
2117
2115
2113
2111
1723
4095
2320
2122
2070
2063
2047
2058
2033
1994
1968
1963
1987
2027
2032
2019
2009
1965
1974
1968
1962
1943
1941
1920
1904
1888
1876
1869
1876
1927
1841
1796
1788
1761
1754
1344
2979
2026
1717
1648
1620
1614
1595
1573
1555
1533
1523
1535
1591
1594
1602
1593
1585
1585
1603
1555
1616
1595
1619
1632
1668
1830
1670
1660
1649
1645
1646
1367
2231
2463
1692
1605
1614
1602
1600
1593
1584
1585
1583
1595
1651
1671
1678
1696
1705
1723
1731
1747
1776
1783
1761
1843
1985
1839
1840
1828
1824
1815
1462
2899
2335
1866
1808
1794
1795
1803
1793
1776
1747
1746
1785
1854
1873
1882
1889
1897
1889
1894
1901
1902
1915
1907
1942
2045
1920
1895
1887
1911
1877
1472
3410
2255
1870
1798
1795
1777
1781
1761
1722
1693
1687
1731
1791
1799
1791
1794
1785
1787
1776
1787
1794
1795
1796
1817
1869
1901
1810
1792
1789
1779
1774
1375
3863
1925
1758
1741
1729
1722
1727
1712
1691
1655
1669
1715
1751
1750
1744
1753
1744
1750
1744
1755
1751
1751
1748
1746
1766
1861
1792
1749
1728
1725
1707
1664
1507
3643
1765
1659
1637
1640
1635
1598
1610
1600
1579
1582
1627
1650
1661
1654
1642
1638
1636
1637
1649
1655
1666
1664
1681
1829
1694
1659
1664
1646
1653
1584
1554
3301
1734
1641
1633
1621
1619
1626
1600
1575
1552
1593
1624
1669
1683
1671
1674
1682
1693
1702
1717
1726
1744
1773
1936
1789
1776
1773
1776
1779
1470
2607
2503
1840
1766
1776
1774
1777
1761
1758
1727
1728
1771
1840
1851
1843
1834
1805
1905
1852
1861
1871
1872
1907
1953
2047
1929
1911
1907
1907
1907
1518
3859
2159
1909
1874
1878
1881
1861
1861
1823
1791
1783
1837
1904
1920
1904
1918
1910
1902
1899
1897
1903
1927
2047
1931
1877
1863
1856
1825
1456
3121
2423
1854
1794
1791
1783
1777
1762
1732
1702
1680
1726
1803
1814
1819
1818
1837
1837
1812
1838
1878
2011
1956
1872
1889
1883
1888
1871
1684
4095
1947
1907
1891
1909
1915
1905
1893
1866
1857
1865
1926
1958
1965
1965
1961
1951
1948
1936
1935
1916
1927
2058
1921
1857
1849
1824
1821
1719
1844
3543
1861
1741
1719
1728
1711
1664
1677
1645
1626
1637
1696
1684
1688
1660
1648
1641
1633
1617
1621
1611
1599
1600
1680
1639
1557
1535
1518
1501
1467
1232
3263
1552
1426
1392
1389
1389
1366
1360
1329
1328
1344
1360
1393
1410
1399
1398
1392
1400
1397
1417
1431
1437
1459
1617
1453
1450
1448
1442
1459
1142
2303
2112
1529
1477
1488
1511
1517
1523
1516
1495
1494
1535
1626
1659
1687
1696
1723
1727
1813
1767
1808
1838
1871
2023
1895
1866
1872
1882
1897
1817
2021
3955
2000
1879
1882
1885
1885
1895
1875
1841
1823
1854
1927
1994
1999
2019
2018
2019
2025
2032
2043
2047
2054
2089
2223
2098
2094
2000
2026
2030
1635
3730
2559
2032
1970
1967
1959
1948
1932
1895
1853
1845
1884
1949
1967
1965
1951
1952
1955
1936
1937
1932
1930
1923
1925
1951
2038
1919
1882
1870
1855
1891
1400
3823
1996
1805
1755
1740
1719
1701
1680
1646
1593
1584
1623
1680
1687
1679
1658
1658
1648
1653
1653
1653
1648
1632
1622
1633
1712
1681
1611
1614
1611
1600
1564
1332
3631
1733
1535
1535
1535
1533
1521
1507
1472
1461
1465
1524
1571
1584
1581
1581
1591
1598
1616
1615
1627
1631
1644
1643
1694
1839
1687
1673
1680
1675
1669
1424
2230
2615
1772
1675
1668
1669
1676
1686
1680
1659
1659
1692
1748
1775
1765
1766
1776
1806
1814
1835
1856
1864
1872
1905
2071
1903
1887
1879
1893
1887
1616
2463
2715
1936
1863
1868
1862
1867
1870
1857
1835
1838
1851
1936
1907
1915
1918
1918
1911
1903
1917
1919
1934
2033
1987
1899
1894
1875
1874
1835
1616
3887
1973
1850
1825
1833
1837
1831
1791
1781
1742
1744
1808
1870
1872
1850
1843
1835
1838
1894
1781
1867
1927
1953
1843
1814
1823
1819
1810
1491
4095
2000
1861
1842
1867
1865
1871
1853
1821
1789
1792
1825
1904
1919
1936
1950
1889
1916
1915
1906
1934
2000
2013
1909
1903
1872
1825
1823
1485
4095
1906
1737
1706
1689
1673
1664
1648
1607
1597
1618
1675
1706
1729
1738
1758
1765
1791
1809
1828
1871
1956
1991
1909
1926
1950
1936
1947
1667
4095
2095
1987
2000
1925
2006
2003
2032
2027
2022
2057
2126
2163
2174
2199
2225
2223
2234
2242
2257
2279
2320
2467
2347
2349
2357
2355
2378
1985
3974
2727
2413
2319
2305
2305
2299
2275
2250
2209
2115
2193
2227
2223
2175
2157
2133
2095
2098
2087
2063
2147
2159
2019
1973
1936
1917
1873
1520
3445
1920
1734
1671
1624
1597
1553
1501
1433
1370
1329
1330
1362
1347
1296
1261
1234
1198
1176
1152
1168
1294
1104
1030
982
950
904
506
2069
1438
821
752
714
714
688
656
600
552
525
560
640
656
657
653
644
640
648
656
678
736
848
722
686
707
706
708
336
2555
957
746
752
768
790
796
800
784
785
816
923
1013
1072
1081
1130
1175
1206
1260
1300
1355
1398
1481
1680
1584
1589
1619
1664
1717
1606
2251
3287
1975
1917
1931
2003
2025
2078
2097
2086
2122
2160
2307
2391
2434
2461
2503
2539
2559
2623
2661
2693
2726
2753
2791
2879
2959
2859
2862
2855
2870
2879
2517
4095
4095
2861
2863
2867
2861
2847
2811
2759
2721
2715
2770
2835
2837
2813
2799
2783
2751
2719
2715
2691
2653
2619
2591
2534
2547
2659
2458
2405
2352
2319
2271
1867
3633
2739
2138
2046
1997
1939
1898
1854
1781
1697
1639
1669
1681
1664
1614
1578
1519
1486
1445
1425
1408
1365
1334
1308
1270
1238
1241
1317
1168
1136
1108
1086
1064
640
2513
1269
1003
944
928
912
896
880
852
824
821
880
896
923
944
930
917
936
957
984
992
1009
1010
1026
1040
1088
1258
1103
1104
1136
1144
1168
880
1939
1984
1302
1238
1249
1287
1296
1321
1358
1365
1382
1441
1519
1573
1587
1618
1633
1664
1701
1753
1777
1828
1850
1888
1949
2128
2000
1999
2026
2047
2074
1744
3379
2507
2211
2174
2199
2223
2243
2256
2259
2254
2293
2354
2416
2439
2449
2463
2471
2485
2512
2544
2555
2626
2639
2783
2623
2597
2593
2559
2559
2285
3723
4095
2559
2517
2496
2495
2479
2448
2403
2345
2301
2327
2385
2398
2375
2346
2320
2291
2263
2245
2235
2194
2195
2337
2135
2069
2039
2000
1963
1623
2877
2670
1859
1745
1697
1658
1623
1579
1502
1433
1388
1402
1446
1445
1408
1384
1353
1331
1302
1275
1249
1232
1224
1263
1297
1165
1129
1096
1073
1048
720
2951
1155
980
946
937
936
912
888
851
816
817
896
966
992
1001
1005
1030
1045
1052
1077
1105
1130
1154
1212
1393
1232
1233
1260
1269
1293
1008
2309
2155
1443
1395
1411
1424
1442
1469
1468
1458
1472
1535
1654
1719
1752
1795
1831
1872
1914
1953
2002
2044
2097
2135
2205
2327
2295
2231
2335
2352
2391
2367
2403
4095
2512
2529
2525
2542
2559
2559
2559
2545
2541
2559
2655
2735
2755
2759
2765
2783
2783
2791
2791
2791
2791
2775
2768
2757
2793
2800
2704
2663
2640
2686
2557
2252
4095
2525
2431
2371
2322
2279
2233
2182
2113
2055
2013
2011
2003
1963
1911
1871
1813
1760
1723
1680
1639
1584
1533
1493
1458
1433
1472
1317
1269
1216
1171
1115
744
2736
1152
960
898
864
832
800
768
699
660
648
676
690
662
656
648
640
640
640
631
642
640
658
664
686
872
705
704
714
720
738
384
1831
1296
865
826
849
889
909
931
966
996
1041
1114
1199
1250
1291
1342
1376
1418
1487
1535
1600
1661
1708
1795
2000
1875
1915
1959
1995
2047
1747
3211
2709
2271
2257
2290
2335
2383
2411
2430
2435
2471
2541
2655
2685
2719
2759
2775
2801
2815
2858
2863
2891
2911
3056
2980
2907
2897
2887
2871
2779
2875
4095
3023
2767
2709
2691
2651
2613
2559
2479
2429
2417
2467
2482
2454
2399
2359
2379
2299
2262
2227
2191
2146
2135
2255
2046
1978
1923
1872
1837
1499
2625
2583
1717
1633
1535
1478
1452
1409
1331
1258
1216
1200
1267
1253
1216
1182
1156
1136
1105
1092
1075
1045
1028
1010
988
1005
1152
966
928
913
912
892
482
2533
1177
880
853
856
855
864
860
827
800
817
882
971
1010
1030
1047
1072
1102
1132
1155
1184
1210
1242
1274
1294
1333
1395
1565
1424
1429
1462
1478
1517
1154
3019
1988
1663
1642
1665
1699
1709
1728
1723
1719
1723
1797
1893
1953
1968
1998
2011
2036
2059
2064
2094
2112
2123
2138
2154
2167
2186
2219
2291
2285
2235
2237
2224
2225
2223
1895
4095
2343
2225
2183
2174
2173
2159
2139
2112
2096
2097
2131
2183
2187
2189
2182
2177
2179
2178
2195
2195
2193
2207
2203
2201
2203
2247
2289
2235
2176
2209
2160
2137
1792
4095
2245
2105
2064
2046
2032
2005
1987
1947
1910
1895
1920
1953
1943
1919
1899
1884
1866
1857
1850
1839
1821
1803
1775
1755
1744
1751
1851
1712
1694
1666
1660
1616
1190
3031
1885
1574
1506
1481
1477
1472
1445
1408
1381
1376
1403
1429
1424
1418
1410
1409
1398
1403
1401
1408
1406
1408
1401
1405
1432
1578
1411
1394
1400
1404
1392
948
2687
1700
1445
1368
1360
1373
1373
1387
1378
1367
1392
1440
1477
1491
1507
1501
1531
1535
1584
1580
1610
1613
1647
1641
1742
1819
1734
1744
1723
1761
1751
1523
3549
1961
1841
1841
1835
1886
1915
1905
1905
1905
1954
2004
2062
2065
2101
2114
2123
2155
2176
2179
2199
2222
2255
2417
2277
2245
2253
2259
2262
1904
3711
2845
2325
2259
2267
2287
2290
2285
2278
2275
2275
2343
2448
2481
2498
2543
2559
2611
2626
2672
2711
2742
2879
2918
2835
2831
2833
2807
2798
2519
4095
3215
2747
2682
2661
2631
2608
2559
2482
2448
2416
2455
2494
2479
2447
2416
2406
2347
2327
2303
2275
2256
2251
2309
2143
2060
2002
1939
1877
1455
3767
1919
1642
1571
1490
1432
1364
1293
1197
1103
1050
1060
1072
1014
944
886
838
786
748
709
714
582
600
605
656
569
490
443
416
368
297
196
2161
370
240
217
208
192
176
144
112
88
128
214
272
296
304
330
368
392
417
448
484
517
553
592
621
696
840
772
796
832
870
928
848
1255
2430
1213
1137
1174
1226
1272
1322
1360
1378
1427
1493
1620
1693
1755
1803
1851
1897
1950
2002
2059
2110
2159
2195
2245
2286
2354
2495
2406
2423
2443
2480
2523
2157
4095
3163
2654
2619
2635
2651
2675
2679
2684
2686
2695
2747
2791
2807
2802
2803
2811
2803
2800
2811
2806
2803
2787
2775
2779
2899
2734
2691
2672
2652
2605
2183
4095
3149
2547
2447
2463
2399
2367
2322
2283
2239
2218
2223
2246
2217
2171
2151
2114
2091
2066
2047
2035
2014
1984
1987
2128
1987
1907
1895
1877
1835
1724
2003
3015
1875
1749
1726
1723
1776
1682
1668
1648
1626
1634
1670
1665
1661
1638
1627
1619
1610
1607
1601
1600
1600
1705
1627
1520
1520
1485
1462
1394
1281
3159
1535
1370
1342
1328
1293
1280
1239
1193
1141
1130
1201
1254
1248
1245
1234
1222
1218
1204
1206
1201
1211
1261
1312
1184
1157
1141
1148
1136
736
2894
1358
1113
1097
1098
1088
1101
1088
1070
1040
1056
1132
1204
1242
1248
1271
1283
1303
1327
1344
1366
1357
1441
1561
1527
1472
1488
1499
1523
1521
1328
3899
1748
1633
1633
1651
1668
1683
1681
1669
1657
1698
1785
1866
1890
1907
1935
1951
1974
2000
2019
2043
2065
2083
2131
2286
2179
2156
2190
2192
2192
2096
2466
4095
2275
2209
2207
2203
2207
2192
2170
2135
2113
2123
2192
2229
2235
2231
2223
2214
2215
2197
2192
2201
2186
2171
2195
2352
2161
2133
2107
2128
2076
1855
2517
3111
2115
1968
1949
1931
1910
1887
1849
1797
1776
1781
1823
1844
1828
1815
1808
1786
1775
1759
1757
1754
1735
1724
1747
1872
1726
1680
1683
1661
1646
1489
1831
2899
1760
1565
1530
1520
1509
1495
1456
1429
1419
1438
1490
1511
1505
1504
1506
1498
1505
1520
1520
1522
1521
1525
1552
1722
1555
1535
1532
1531
1527
1162
2539
2077
1582
1498
1504
1506
1465
1504
1486
1475
1484
1510
1599
1600
1600
1607
1635
1646
1670
1682
1709
1728
1741
1855
1849
1793
1811
1825
1838
1840
1635
3751
2027
1933
1952
1986
2004
2018
2030
2047
2064
2091
2163
2209
2235
2237
2273
2305
2311
2350
2375
2403
2514
2546
2448
2437
2437
2447
2439
2115
4095
2647
2429
2393
2378
2354
2327
2298
2229
2175
2147
2203
2253
2243
2221
2193
2165
2141
2129
2134
2095
2215
2112
1974
1927
1877
1849
1792
1441
4095
1840
1639
1584
1535
1503
1450
1383
1291
1232
1200
1232
1293
1264
1235
1214
1174
1152
1126
1108
1126
1173
1175
1049
1008
986
944
936
560
2863
1088
882
848
842
840
822
806
757
728
745
820
898
925
944
956
976
1006
1026
1056
1088
1122
1193
1345
1230
1242
1264
1295
1330
944
2966
1777
1456
1501
1492
1520
1578
1589
1574
1585
1622
1712
1833
1909
1955
1986
2032
2079
2115
2157
2192
2235
2279
2365
2455
2363
2367
2397
2401
2413
2077
4095
2743
2495
2461
2478
2479
2479
2471
2495
2379
2466
2483
2538
2555
2550
2545
2535
2513
2519
2519
2498
2497
2499
2647
2467
2411
2379
2343
2326
2162
2471
3919
2283
2135
2107
2077
2045
2005
1968
1893
1856
1851
1879
1874
1840
1792
1750
1744
1744
1701
1680
1654
1633
1643
1680
1535
1506
1478
1446
1424
984
3035
1520
1296
1250
1214
1180
1165
1124
1098
1058
1056
1086
1104
1106
1072
1062
1042
1062
1065
1058
1062
1155
1140
1190
1091
1090
1083
1086
1088
737
2519
1322
1139
1115
1136
1144
1155
1168
1200
1198
1232
1286
1344
1376
1396
1424
1463
1485
1535
1579
1628
1751
1791
1713
1747
1762
1816
1810
1557
3871
2102
1941
1971
1999
2032
2064
2071
2055
2031
2055
2146
2254
2287
2305
2335
2347
2367
2384
2399
2443
2559
2515
2445
2443
2442
2445
2416
2199
4095
2533
2431
2375
2373
2363
2317
2297
2242
2187
2191
2258
2305
2289
2271
2250
2234
2219
2192
2166
2165
2219
2218
2086
2047
2017
1983
1954
1570
4095
2014
1846
1793
1762
1734
1698
1641
1584
1522
1488
1535
1600
1585
1567
1526
1514
1500
1492
1476
1469
1457
1488
1664
1469
1438
1424
1434
1435
1210
2199
2521
1553
1488
1506
1533
1556
1583
1584
1591
1605
1698
1835
1935
2003
2081
2134
2198
2275
2321
2384
2447
2491
2538
2623
2847
2695
2687
2674
2687
2693
2347
4095
4095
2661
2679
2672
2643
2613
2559
2496
2429
2383
2379
2416
2416
2379
2339
2286
2235
2209
2187
2128
2095
2055
2062
2074
2173
1983
1935
1891
1854
1813
1393
2779
2139
1653
1535
1488
1431
1377
1324
1249
1166
1108
1105
1136
1125
1084
1042
982
954
923
898
870
842
796
784
923
730
667
640
600
576
394
857
1680
594
448
424
400
388
384
354
324
320
324
400
432
442
448
449
480
484
496
526
528
546
586
720
616
609
640
666
688
305
2285
1011
816
848
884
940
967
998
1051
1088
1146
1219
1313
1392
1427
1466
1534
1581
1620
1718
1751
1872
2042
1935
1991
2023
2081
2107
1827
3447
2771
2391
2373
2433
2483
2523
2559
2591
2599
2646
2743
2837
2869
2947
2959
2995
3031
3091
3115
3205
3431
3231
3199
3195
3171
3207
2755
4095
4095
3259
3159
3111
3099
3063
3023
2960
2892
2855
2887
2941
2935
2897
2821
2803
2757
2719
2705
2782
2683
2525
2461
2391
2354
2265
1939
4095
2158
2035
1945
1899
1840
1750
1712
1535
1497
1453
1475
1453
1423
1398
1344
1296
1251
1220
1245
1360
1184
1101
1056
1001
992
768
1339
2291
944
838
785
768
746
729
715
656
628
665
736
768
760
790
772
780
784
794
822
903
880
820
854
880
944
943
812
3007
1168
1059
1088
1107
1184
1193
1230
1256
1284
1372
1493
1604
1694
1755
1808
1883
1937
1985
2064
2165
2399
2302
2298
2347
2342
2373
2143
3205
4095
2427
2363
2354
2355
2318
2309
2258
2199
2167
2175
2213
2176
2150
2144
2163
2203
2299
2416
2591
2961
3159
3471
3807
4095
4095
4095
4095
4095
4095
4095
4095
4095
4095
4095
4095
4095
4095
4095
4095
4095
4095
4095
4095
4095
4087
3839
3731
3859
3435
3171
3031
2875
2751
2379
3443
4095
2252
2129
2000
1878
1748
1615
1436
1273
1127
1053
1002
883
768
660
556
438
330
256
176
256
6
0
0
0
0
0
320
0
0
0
0
0
0
0
0
0
0
0
0
0
0
0
0
0
0
0
0
0
0
0
0
0
0
0
434
0
0
0
0
0
0
0
0
8
116
290
440
544
672
770
913
1040
1184
1313
1477
1795
1751
1841
1946
2087
2193
1941
3955
3339
2687
2754
2871
2999
3103
3222
3319
3421
3543
3771
4018
4095
4095
4095
4095
4095
4095
4095
4095
4095
4095
4095
4095
4095
4095
4095
4095
4095
4095
4095
4095
4095
4095
4095
4095
4095
4095
4095
4095
4095
4095
4095
4023
3883
3775
3675
3623
3847
3435
3287
3199
3131
3043
2512
4095
4095
2703
2766
2731
2683
2655
2603
2543
2469
2445
2491
2539
2515
2491
2461
2419
2403
2351
2295
2283
2287
2419
2215
2149
2089
2018
1943
1571
4095
1934
1771
1689
1625
1563
1488
1394
1291
1195
1116
1131
1136
1088
1002
944
868
812
752
684
630
584
554
668
408
325
264
212
153
0
1514
468
0
0
0
0
0
0
0
0
0
0
0
0
0
0
0
0
0
0
0
0
0
0
0
0
0
0
0
0
0
1855
16
0
0
0
18
64
100
112
138
212
336
480
570
646
714
808
888
984
1090
1168
1270
1361
1506
1744
1662
1742
1829
1921
2014
1744
3687
3158
2421
2465
2549
2640
2734
2878
2853
2882
2959
3099
3311
3487
3631
3750
3871
3979
4095
4095
4095
4095
4095
4095
4095
4095
4095
4095
4095
4095
4095
4095
4095
4095
4095
4095
4095
4095
4095
4095
4095
3863
3711
3793
3703
3707
3603
3503
3387
3275
3163
3071
2983
2896
2799
2711
2675
2687
2447
2341
2250
2155
2045
1680
4079
1937
1686
1590
1497
1419
1321
1216
1106
989
907
873
864
839
725
668
608
560
508
480
418
372
338
320
437
256
192
168
128
96
0
1252
560
64
0
0
0
0
0
0
0
0
0
66
116
144
180
208
242
293
308
384
428
467
537
643
684
658
706
744
788
726
1110
2310
1122
1050
1113
1146
1192
1241
1308
1344
1379
1472
1595
1693
1747
1819
1860
1917
1990
2073
2150
2207
2263
2369
2515
2459
2480
2475
2559
2595
2423
4095
2832
2775
2775
2775
2865
2895
2859
2870
2881
2939
2987
3055
3045
3121
3091
3103
3109
3143
3152
3247
3377
3246
3151
3023
3119
3071
2711
4095
4095
2939
2891