1099
1142
1142
1140
1146
1144
1140
1145
1142
1141
1147
1142
1143
1146
1148
1147
1140
1148
1148
1152
1146
1145
1148
1148
1147
1148
1147
1152
1152
1147
1152
1152
1152
1152
1152
1152
1149
1152
1152
1113
1152
1153
1154
1153
1153
1152
1152
1154
1154
1153
1159
1157
1156
1157
1156
1155
1154
1168
1156
1148
1157
1156
1156
1158
1161
1157
1159
1158
1158
1157
1157
1162
1158
1162
1161
1161
1163
1158
1162
1164
1162
1160
1162
1161
1164
1166
1154
1165
1166
1156
1138
1165
1166
1166
1168
1168
1168
1168
1168
1170
1168
1169
1171
1168
1169
1169
1168
1159
1168
1116
1169
1193
1170
1168
1168
1168
1168
1170
1168
1170
1170
1169
1168
1168
1168
1169
1168
1168
1169
1168
1168
1226
1169
1168
1168
1169
1168
1168
1168
1168
1168
1168
1168
1168
1168
1168
1168
1168
1168
1170
1169
1168
1169
1173
1169
1168
1169
1169
1170
1170
1170
1168
1170
1168
1168
1170
1168
1173
1172
1174
1171
1172
1174
1172
1174
1174
1176
1173
1180
1177
1177
1178
1180
1179
1179
1182
1179
1186
1178
1184
1180
1182
1186
1186
1188
1186
1146
1186
1189
1193
1194
1191
1196
1197
1218
1198
1198
1200
1200
1200
1200
1202
1201
1204
1204
1206
1210
1210
1210
1210
1212
1216
1216
1216
1223
1218
1218
1181
1224
1227
1220
1229
1221
1232
1228
1232
1233
1233
1236
1236
1238
1239
1241
1242
1242
1245
1248
1244
1245
1242
1246
1244
1249
1248
1251
1253
1250
1252
1252
1250
1251
1254
1250
1254
1253
1255
1252
1257
1253
1258
1256
1260
1254
1262
1261
1262
1264
1263
1264
1264
1264
1266
1265
1291
1269
1280
1277
1280
1280
1280
1280
1282
1285
1288
1288
1293
1296
1296
1296
1299
1299
1307
1309
1314
1315
1325
1321
1325
1328
1328
1332
1339
1343
1344
1348
1347
1355
1357
1360
1360
1368
1370
1374
1376
1387
1381
1388
1392
1394
1393
1400
1403
1405
1406
1408
1408
1413
1416
1418
1419
1423
1424
1424
1426
1424
1475
1425
1428
1424
1430
1426
1427
1429
1429
1425
1428
1429
1426
1427
1424
1424
1425
1423
1424
1423
1419
1417
1414
1410
1408
1408
1408
1404
1404
1398
1394
1392
1390
1387
1386
1381
1377
1373
1370
1366
1362
1361
1360
1356
1356
1353
1360
1344
1344
1344
1340
1336
1333
1330
1328
1322
1320
1321
1321
1312
1312
1312
1306
1309
1309
1305
1300
1298
1298
1296
1296
1296
1296
1290
1296
1296
1285
1292
1294
1293
1286
1290
1288
1288
1286
1292
1286
1285
1286
1280
1280
1280
1280
1280
1280
1280
1296
1277
1277
1274
1271
1267
1276
1266
1259
1263
1262
1258
1264
1256
1280
1248
1248
1238
1237
1234
1232
1232
1230
1226
1226
1221
1218
1216
1216
1214
1212
1212
1162
1210
1205
1204
1202
1205
1200
1202
1205
1201
1204
1205
1206
1206
1207
1209
1203
1211
1212
1216
1216
1216
1216
1216
1216
1216
1217
1216
1216
1216
1218
1216
1216
1216
1216
1213
1216
1216
1235
1210
1207
1206
1207
1205
1205
1202
1200
1200
1200
1197
1195
1191
1194
1191
1188
1185
1184
1184
1184
1184
1178
1178
1177
1175
1177
1176
1177
1176
1175
1176
1178
1177
1174
1178
1177
1180
1180
1184
1185
1188
1180
1187
1190
1194
1196
1198
1216
1200
1200
1200
1198
1201
1200
1204
1212
1204
1206
1206
1207
1206
1206
1206
1205
1204
1204
1204
1205
1203
1168
1205
1204
1203
1206
1204
1205
1202
1201
1201
1200
1200
1200
1200
1198
1194
1198
1196
1194
1195
1189
1190
1190
1192
1163
1193
1192
1191
1195
1197
1195
1197
1198
1200
1198
1200
1200
1201
1200
1200
1201
1200
1202
1202
1198
1202
1201
1200
1201
1201
1200
1198
1200
1196
1196
1191
1185
1185
1181
1177
1177
1171
1171
1168
1168
1162
1154
1153
1152
1147
1120
1136
1130
1125
1116
1106
1101
1094
1088
1072
1064
1056
1036
1019
1008
982
972
960
944
922
906
897
880
853
842
832
825
800
788
784
770
757
752
749
744
736
728
725
722
723
728
730
683
755
752
756
768
784
800
816
832
866
896
909
930
981
1013
1049
1118
1152
1198
1234
1395
1367
1421
1518
1572
1621
1728
1778
1835
1935
1986
2043
2146
2193
2245
2294
2384
2434
2481
2559
2619
2667
2751
2799
2839
2928
2974
3019
3111
3143
3199
3315
3339
3391
3439
3551
3549
3583
3623
3635
3639
3659
3615
3583
3531
3491
3451
3405
3303
3259
3203
3095
2975
2983
2879
2823
2771
2659
2631
2543
2435
2378
2321
2263
2161
2111
2062
1965
1915
1871
1789
1746
1710
1642
1607
1584
1520
1491
1472
1453
1409
1393
1376
1345
1335
1326
1299
1290
1280
1264
1259
1248
1230
1221
1210
1202
1192
1180
1170
1158
1152
1144
1136
1134
1127
1116
1116
1113
1110
1108
1104
1104
1104
1104
1105
1101
1096
1100
1063
1100
1097
1101
1098
1096
1098
1096
1094
1089
1093
1089
1089
1088
1084
1081
1078
1072
1072
1070
1067
1062
1062
1058
1056
1056
1052
1053
1050
1049
1045
1044
1050
1044
1044
1045
1046
1040
1040
1054
1008
1002
1042
1034
1032
1015
1021
1018
1012
1008
1008
1001
996
992
992
984
982
944
978
976
976
976
969
970
968
968
968
970
966
966
970
972
976
973
976
976
977
976
977
977
981
979
980
981
978
978
978
976
976
976
976
973
972
969
964
961
960
958
956
946
954
952
950
948
946
950
947
945
938
945
945
948
950
949
953
960
960
953
960
963
962
965
964
968
969
973
967
965
960
960
960
955
954
949
946
944
942
930
932
928
928
924
920
918
914
913
912
912
908
906
906
910
910
913
912
936
912
912
912
915
916
918
920
922
924
922
924
859
918
920
917
912
908
904
897
892
888
884
882
877
877
876
872
873
871
868
870
876
874
880
880
882
886
891
896
900
904
905
910
912
912
912
912
906
900
900
896
889
884
880
873
861
854
848
848
833
832
832
826
820
818
816
816
816
816
813
816
811
808
806
811
810
810
810
808
805
806
808
802
810
811
810
816
816
816
816
817
819
816
817
816
816
816
816
808
802
804
756
794
788
784
784
781
776
774
773
768
769
768
768
768
769
770
768
776
776
773
773
774
780
779
780
782
784
785
786
788
792
788
787
794
785
784
784
784
784
780
780
780
781
778
778
778
778
778
778
778
742
784
781
778
784
782
784
784
786
788
788
752
800
800
800
801
812
804
812
809
813
816
816
816
820
819
825
832
837
842
848
849
864
868
877
874
896
900
908
912
928
930
936
940
944
948
948
949
953
952
953
953
957
956
952
950
952
945
947
947
947
948
949
954
896
962
968
974
980
992
997
1005
1018
1027
1040
1056
1058
1072
1072
1078
1082
1088
1088
1141
1096
1097
1092
1102
1088
1080
1082
1076
1049
1072
1064
1060
1056
1053
1050
1052
1056
1066
1072
1076
1092
1099
1105
1126
1136
1145
1158
1170
1180
1194
1191
1200
1202
1205
1201
1201
1200
1198
1195
1194
1186
1184
1180
1174
1174
1169
1168
1168
1165
1165
1166
1165
1160
1164
1165
1166
1168
1168
1168
1168
1170
1165
1168
1168
1168
1168
1165
1166
1166
1166
1168
1169
1168
1170
1200
1178
1179
1185
1189
1189
1192
1198
1200
1202
1211
1216
1216
1226
1230
1232
1234
1237
1235
1235
1234
1224
1232
1233
1226
1226
1229
1226
1188
1225
1220
1226
1218
1222
1224
1222
1227
1227
1230
1234
1236
1238
1246
1250
1230
1259
1262
1264
1266
1264
1265
1264
1262
1261
1255
1251
1248
1241
1238
1233
1232
1233
1233
1234
1245
1249
1257
1266
1280
1280
1286
1297
1303
1309
1317
1318
1315
1323
1326
1325
1328
1328
1328
1332
1325
1338
1301
1346
1349
1354
1361
1367
1374
1411
1392
1394
1408
1412
1409
1437
1443
1535
1456
1472
1476
1484
1495
1503
1509
1524
1526
1534
1535
1551
1555
1561
1564
1565
1569
1575
1575
1575
1574
1571
1571
1563
1558
1552
1535
1530
1524
1514
1506
1504
1491
1487
1478
1473
1463
1460
1453
1441
1437
1431
1426
1425
1424
1372
1422
1422
1424
1425
1427
1434
1440
1440
1435
1437
1437
1436
1430
1428
1423
1411
1404
1396
1390
1376
1374
1367
1360
1353
1358
1361
1363
1369
1378
1392
1398
1410
1418
1440
1426
1435
1440
1440
1440
1438
1440
1440
1429
1426
1397
1424
1421
1421
1422
1415
1419
1425
1429
1433
1442
1449
1456
1471
1474
1482
1488
1493
1501
1504
1506
1506
1510
1503
1502
1498
1492
1506
1488
1485
1483
1486
1482
1482
1483
1482
1488
1488
1490
1499
1498
1499
1506
1510
1505
1493
1488
1473
1455
1433
1413
1361
1344
1310
1278
1217
1197
1169
1133
1157
1104
1100
1094
1102
1129
1143
1170
1210
1246
1281
1327
1424
1486
1556
1710
1793
1882
2064
2113
2255
2439
2529
2625
2803
2896
2994
3103
3315
3439
3567
3831
3963
4077
4095
4095
4095
4095
4071
3991
3767
3635
3495
3371
3122
2999
2891
2679
2559
2478
2304
2227
2159
2032
1984
1940
1875
1856
1835
1818
1803
1792
1787
1773
1764
1751
1728
1713
1632
1687
1675
1664
1649
1646
1642
1641
1635
1637
1643
1648
1653
1662
1671
1674
1733
1684
1687
1686
1687
1684
1681
1677
1673
1667
1645
1660
1654
1653
1648
1648
1648
1648
1648
1648
1648
1650
1651
1664
1658
1656
1658
1655
1654
1657
1653
1651
1648
1647
1646
1645
1644
1647
1648
1648
1657
1661
1664
1676
1681
1665
1701
1703
1709
1712
1712
1709
1711
1703
1697
1694
1685
1680
1680
1673
1674
1675
1678
1677
1678
1681
1685
1692
1697
1700
1701
1708
1710
1792
1712
1712
1711
1710
1703
1701
1701
1697
1695
1690
1696
1695
1697
1698
1705
1709
1712
1712
1712
1707
1712
1712
1711
1712
1705
1705
1694
1686
1680
1680
1666
1669
1668
1667
1664
1664
1661
1662
1665
1669
1671
1672
1680
1679
1679
1675
1673
1670
1666
1654
1651
1645
1636
1631
1627
1617
1616
1616
1616
1616
1657
1618
1620
1618
1624
1622
1624
1622
1616
1616
1615
1621
1600
1600
1593
1589
1580
1586
1584
1588
1586
1591
1593
1596
1599
1598
1600
1605
1609
1611
1613
1612
1612
1610
1612
1610
1612
1614
1609
1606
1600
1600
1582
1594
1593
1596
1588
1586
1589
1584
1584
1585
1584
1587
1587
1591
1594
1597
1601
1607
1613
1616
1625
1633
1637
1643
1654
1655
1664
1673
1703
1680
1683
1686
1683
1686
1697
1686
1684
1683
1684
1686
1693
1695
1701
1711
1714
1723
1734
1744
1744
1747
1755
1751
1758
1758
1760
1759
1733
1760
1760
1760
1755
1763
1769
1772
1755
1781
1775
1791
1803
1813
1811
1818
1820
1823
1821
1824
1815
1814
1809
1804
1806
1792
1799
1801
1801
1800
1806
1803
1813
1819
1823
1830
1835
1834
1840
1841
1840
1837
1839
1839
1834
1833
1829
1846
1829
1831
1838
1840
1842
1877
1861
1835
1872
1875
1882
1879
1875
1874
1872
1867
1857
1856
1851
1842
1851
1850
1855
1856
1862
1872
1879
1884
1893
1899
1903
1904
1910
1886
1911
1908
1903
1901
1896
1894
1892
1887
1888
1890
1894
1903
1914
1911
1922
1931
1936
1941
1946
1937
1949
1951
1946
1941
1937
1937
1936
1936
1935
1937
1941
1951
1961
1968
1979
1983
1995
1999
2005
2010
2015
2015
2015
2018
2018
2021
2070
2031
2037
2063
2074
2091
2123
2138
2155
2183
2196
2198
2244
2231
2233
2234
2231
2225
2223
2205
2203
2198
2189
2181
2176
2165
2160
2155
2139
2133
2128
2122
2111
2099
2145
2078
2067
2065
2055
2047
2047
2046
2046
2045
2047
2047
2047
2044
2045
2046
2042
2035
2032
2027
2015
2011
2001
2015
1999
1999
1997
1999
2000
1986
2009
1980
2018
2026
2030
2031
2032
2033
2033
2035
2029
2034
2039
2038
2043
2043
2057
2063
2067
2075
2082
2087
2093
2096
2097
2096
2095
2090
2081
2079
2074
2069
2062
2058
2047
2042
2038
2032
2013
1997
1979
1926
1893
1856
1789
1745
1715
1689
1659
1711
1659
1689
1719
1758
1869
1936
2013
2235
2359
2494
2789
2943
3119
3301
3711
3927
4095
4095
4095
4095
4095
4095
4095
4095
4095
4095
4095
4095
4095
4095
4095
4095
4095
3847
3647
3439
3087
2933
2801
2585
2495
2416
2307
2271
2239
2217
2189
2181
2175
2182
2189
2191
2195
2203
2207
2213
2214
2211
2225
2226
2231
2235
2239
2243
2245
2256
2259
2263
2271
2273
2277
2281
2285
2285
2295
2301
2305
2311
2327
2337
2352
2372
2384
2389
2399
2407
2413
2416
2416
2416
2417
2422
2423
2427
2439
2443
2448
2470
2478
2487
2499
2509
2511
2521
2523
2527
2533
2539
2539
2543
2543
2547
2557
2559
2559
2589
2559
2611
2623
2631
2635
2639
2631
2623
2619
2608
2599
2589
2581
2559
2559
2559
2559
2587
2591
2598
2605
2605
2607
2603
2597
2595
2583
2559
2559
2559
2559
2555
2559
2546
2559
2559
2611
2559
2582
2559
2559
2559
2559
2595
2559
2554
2555
2583
2544
2543
2543
2544
2547
2547
2555
2557
2543
2559
2550
2543
2545
2518
2513
2507
2495
2491
2483
2480
2480
2480
2487
2493
2495
2499
2511
2514
2519
2554
2554
2551
2591
2613
2633
2674
2693
2707
2723
2723
2719
2711
2695
2690
2683
2684
2682
2691
2719
2739
2763
2799
2839
2865
2927
2947
2975
2994
3038
3056
3071
3103
3115
3120
3137
3143
3154
3175
3187
3206
3239
3255
3281
3259
3343
3359
3383
3415
3443
3455
3503
3519
3542
3575
3603
3631
3671
3703
3735
3763
3831
3879
3926
4031
4083
4095