1146
1186
1189
1202
1216
1226
1232
1246
1258
1264
1280
1291
1298
1313
1320
1328
1344
1353
1361
1370
1387
1395
1403
1416
1424
1435
1447
1456
1465
1478
1488
1477
1507
1516
1523
1528
1535
1554
1561
1578
1583
1589
1600
1603
1613
1622
1627
1631
1644
1648
1650
1658
1664
1645
1674
1680
1680
1688
1691
1696
1695
1698
1701
1702
1702
1703
1701
1702
1706
1699
1699
1696
1695
1691
1686
1681
1691
1674
1666
1661
1653
1645
1643
1630
1613
1607
1600
1584
1566
1556
1535
1522
1508
1488
1474
1462
1433
1421
1408
1388
1360
1344
1328
1300
1280
1264
1227
1209
1190
1160
1105
1088
1088
1070
1049
1026
983
962
944
912
896
874
853
822
802
784
768
729
710
696
672
650
634
618
597
576
560
544
528
496
480
464
452
432
422
408
400
384
368
360
352
332
322
316
306
298
288
288
274
268
260
257
256
256
246
244
244
240
240
240
240
240
244
244
242
256
256
260
264
272
276
281
288
298
304
314
320
336
344
352
362
372
385
400
404
428
440
454
464
493
508
528
554
577
592
614
640
664
688
709
736
784
805
832
854
896
925
950
978
1029
1056
1086
1109
1168
1191
1226
1266
1296
1322
1361
1391
1370
1461
1482
1505
1535
1567
1584
1604
1627
1648
1661
1682
1695
1703
1717
1725
1731
1734
1737
1738
1731
1729
1726
1715
1706
1735
1680
1655
1635
1616
1585
1565
1535
1485
1456
1424
1382
1345
1314
1280
1214
1170
1136
1078
1040
997
928
888
848
816
754
720
688
656
592
560
528
492
448
418
388
364
320
294
272
256
219
202
185
172
144
130
128
112
100
96
72
83
80
77
80
80
80
82
90
96
104
112
118
136
144
160
168
194
208
224
240
264
288
304
328
363
385
416
442
496
530
565
596
656
689
728
768
826
866
906
944
1020
1072
1105
1165
1206
1242
1296
1329
1367
1398
1456
1482
1504
1535
1568
1586
1610
1623
1638
1651
1655
1659
1657
1650
1647
1635
1615
1600
1579
1534
1501
1472
1424
1386
1346
1282
1244
1200
1108
1065
1009
965
890
848
798
752
688
640
594
558
456
437
400
368
320
288
265
236
192
172
144
128
96
84
76
64
64
84
44
40
44
48
48
52
58
64
74
86
104
112
128
128
174
192
208
228
272
304
330
361
417
454
496
516
610
652
700
742
822
868
912
960
1042
1085
1122
1198
1232
1268
1328
1354
1382
1420
1438
1453
1463
1474
1473
1472
1457
1446
1424
1383
1354
1327
1259
1211
1175
1088
1040
981
935
838
789
740
692
604
562
520
468
400
368
328
296
240
216
192
171
138
128
112
101
90
88
90
96
96
112
128
134
148
180
200
224
241
288
313
338
370
432
468
514
554
640
688
740
788
893
944
1001
1056
1162
1213
1264
1352
1400
1442
1517
1552
1584
1630
1645
1661
1671
1680
1679
1670
1647
1622
1597
1527
1488
1445
1346
1293
1232
1114
1051
977
923
800
738
682
624
518
448
414
368
288
256
218
184
132
112
90
73
50
48
40
37
40
48
56
64
80
96
112
145
169
193
224
281
320
354
400
481
540
592
644
756
816
878
931
1048
1105
1165
1264
1309
1350
1425
1457
1488
1509
1535
1553
1566
1552
1535
1520
1468
1435
1392
1307
1253
1193
1074
970
939
873
738
672
608
544
428
372
322
272
192
146
114
80
32
9
0
0
0
0
0
0
0
0
0
4
24
44
64
112
144
176
216
296
347
384
450
576
634
698
768
896
960
1028
1088
1200
1253
1298
1381
1413
1441
1481
1488
1493
1488
1474
1456
1397
1360
1312
1264
1152
1089
1011
882
814
741
672
546
480
420
368
270
224
181
144
90
64
48
32
48
12
12
16
24
36
65
88
112
136
162
224
256
293
336
430
473
544
594
720
784
848
912
1042
1102
1158
1265
1310
1354
1422
1447
1466
1485
1483
1478
1465
1416
1377
1334
1232
1168
1101
953
880
800
720
576
498
428
366
243
192
136
96
17
0
0
0
0
0
0
0
0
0
0
0
0
6
32
98
138
180
230
336
400
470
548
700
780
865
946
1104
1186
1264
1328
1453
1504
1556
1623
1648
1665
1678
1663
1647
1583
1532
1476
1351
1280
1203
1129
971
906
816
681
608
549
490
394
352
320
288
242
226
224
224
240
256
272
340
340
373
400
438
528
576
627
688
808
876
950
1033
1174
1245
1317
1441
1498
1553
1600
1665
1687
1701
1709
1695
1670
1606
1558
1498
1360
1284
1201
1037
944
861
770
619
546
468
406
296
244
208
164
112
132
80
67
64
80
88
104
128
176
204
240
276
376
432
496
566
714
792
870
945
1100
1168
1262
1287
1386
1418
1442
1471
1472
1458
1408
1366
1312
1181
1101
1008
832
740
651
560
386
308
234
162
48
0
0
0
0
0
0
0
0
0
0
0
0
0
0
0
80
136
198
268
418
499
592
684
857
944
1034
1111
1245
1301
1353
1417
1437
1446
1433
1406
1370
1317
1186
1104
1008
827
730
632
540
362
277
204
131
16
0
0
0
0
0
0
0
0
0
0
0
0
0
4
57
113
176
256
396
490
580
672
844
924
1008
1088
1209
1260
1296
1344
1354
1352
1302
1262
1202
1066
973
880
784
592
496
400
320
164
98
36
0
0
0
0
0
0
0
0
0
0
0
0
8
48
96
144
202
340
416
497
589
754
842
928
1006
1138
1200
1238
1304
1318
1321
1287
1250
1204
1069
979
889
788
597
496
400
308
150
80
16
0
0
0
0
0
0
0
0
0
0
0
0
0
16
72
128
272
354
444
544
724
817
912
1002
1152
1216
1263
1328
1337
1333
1321
1241
1178
1103
912
804
693
576
348
232
128
24
0
0
0
0
0
0
0
0
0
0
0
0
0
0
0
0
0
0
0
0
0
33
112
262
361
424
496
629
688
736
774
825
835
835
822
761
720
674
624
529
484
448
420
384
384
392
400
466
516
569
630
768
849
944
1040
1237
1344
1458
1710
1845
1988
2277
2423
2559
2851
2983
3119
3339
3423
3479
3519
3487
3423
3333
3099
2951
2805
2507
2352
2190
1894
1744
1600
1344
1227
1118
996
852
785
729
683
614
596
576
564
576
600
640
682
800
872
941
1028
1168
1233
1294
1370
1395
1406
1378
1344
1294
1140
1045
931
817
592
472
368
260
84
10
0
0
0
0
0
0
0
0
0
0
0
0
52
116
208
298
522
608
720
832
1030
1114
1196
1255
1332
1348
1344
1280
1223
1144
944
832
708
585
352
240
130
40
0
0
0
0
0
0
0
0
0
0
0
0
0
12
96
256
346
450
562
776
880
976
1065
1189
1231
1260
1256
1225
1178
1033
925
813
696
456
336
224
114
0
0
0
0
0
0
0
0
0
0
0
0
0
0
0
0
144
240
336
448
656
752
884
928
1056
1093
1113
1110
1077
1020
953
771
672
560
445
245
152
70
0
0
0
0
0
0
0
0
0
0
0
0
32
38
168
342
442
546
656
852
944
1005
1100
1187
1206
1209
1156
1096
1014
816
704
581
454
236
130
36
0
0
0
0
0
0
0
0
0
0
0
0
0
0
36
114
204
368
472
585
696
848
946
1028
1089
1164
1173
1164
1104
1040
944
788
668
546
416
184
80
0
0
0
0
0
0
0
0
0
0
0
0
0
0
0
48
128
225
432
544
656
756
928
995
1052
1080
1088
1056
1002
834
711
608
470
225
112
0
0
0
0
0
0
0
0
0
0
0
0
0
0
0
0
0
9
104
316
424
528
634
808
869
918
949
954
917
861
784
592
465
352
234
32
0
0
0
0
0
0
0
0
0
0
0
0
0
0
16
112
211
326
560
672
772
866
992
1056
1056
1048
960
881
778
668
418
290
170
50
0
0
0
0
0
0
0
0
0
0
0
0
0
0
0
173
272
388
501
665
761
842
908
976
991
982
950
854
768
633
544
296
176
64
0
0
0
0
0
0
0
0
0
0
0
0
0
2
88
192
304
548
662
784
888
1061
1114
1148
1148
1106
1044
848
722
588
448
192
70
0
0
0
0
0
0
0
0
0
0
0
0
0
68
166
274
396
652
772
890
992
1148
1193
1202
1196
1106
1028
918
676
544
410
288
82
0
0
0
0
0
0
0
0
0
0
64
138
341
432
554
678
928
1043
1152
1230
1333
1354
1350
1267
1184
1076
822
678
538
400
170
72
0
0
0
0
0
0
0
0
0
8
80
164
376
502
640
776
1026
1137
1229
1342
1360
1354
1264
1173
1062
789
644
498
368
133
41
0
0
0
0
0
0
0
0
0
37
118
324
448
584
721
976
1095
1192
1270
1345
1344
1318
1178
1069
936
660
520
385
264
64
0
0
0
0
0
0
0
16
76
144
236
336
578
716
848
976
1201
1284
1344
1395
1379
1336
1168
1045
903
760
484
357
240
137
0
0
0
0
0
0
0
28
88
170
268
384
656
800
931
1091
1318
1399
1456
1479
1444
1381
1161
1014
864
569
424
304
192
34
0
0
0
0
0
0
48
172
264
368
494
770
920
1060
1200
1402
1464
1488
1490
1435
1346
1100
938
781
624
345
232
128
48
0
0
0
0
0
34
96
256
364
489
640
944
1093
1237
1455
1521
1570
1583
1502
1409
1264
986
818
658
501
256
144
64
0
0
0
0
16
72
144
336
464
613
777
1121
1287
1440
1579
1750
1793
1807
1728
1632
1504
1207
1049
890
634
528
440
377
376
314
333
368
469
552
652
768
1056
1213
1370
1523
1773
1856
1910
1984
1879
1799
1533
1361
1178
839
682
545
425
260
211
192
176
216
260
320
392
608
748
897
1061
1360
1489
1600
1718
1728
1709
1554
1420
1264
1097
764
608
466
264
192
144
156
128
154
169
257
428
544
682
834
1152
1296
1424
1526
1645
1649
1616
1441
1297
1136
784
616
460
321
128
64
32
16
34
128
194
282
386
661
829
1004
1193
1517
1649
1781
1861
1853
1806
1594
1425
1245
870
704
540
400
216
156
128
128
192
256
332
428
685
836
1010
1196
1509
1648
1746
1857
1854
1811
1613
1456
1280
917
748
593
464
283
228
196
194
248
304
368
449
692
841
1005
1176
1475
1603
1690
1759
1733
1712
1402
1216
1010
802
432
264
128
16
0
0
0
0
0
0
78
315
476
662
858
1233
1401
1554
1762
1815
1833
1815
1671
1563
1445
1242
1168
1113
1092
1130
1193
1390
1520
1671
2000
2207
2425
2661
3131
3377
3611
3887
3899
3819
3431
3179
2909
2407
2155
1915
1501
1331
1190
1074
943
915
916
983
1072
1176
1310
1613
1760
1893
2090
2130
2128
2031
1907
1745
1365
1166
976
811
564
474
394
392
412
452
516
597
832
992
1173
1351
1680
1811
1914
1999
1980
1913
1659
1474
1284
928
768
640
538
424
402
416
448
571
656
773
914
1254
1436
1615
1885
1969
2019
2029
1913
1783
1618
1244
1059
882
624
528
468
434
457
500
576
657
897
1070
1246
1430
1776
1904
2006
2095
2064
1989
1721
1531
1338
976
816
704
610
528
561
560
608
749
848
972
1124
1457
1626
1785
2006
2075
2098
2014
1905
1744
1593
1237
1077
886
728
620
633
626