3889
3902
3899
3895
3858
3899
3895
3895
3911
3895
3895
3893
3871
3855
3829
3894
3901
3895
3893
3895
3895
3895
3895
3895
3895
3891
3895
3895
3889
3895
3893
3899
3891
3879
3895
3895
3893
3895
3895
3895
3890
3895
3895
3893
3895
3919
3895
3893
3899
3891
3851
3895
3895
3902
3891
3895
3891
3895
3711
3895
3895
3895
3899
3915
3895
3895
3903
3894
3895
3895
3895
3895
3895
3899
3903
3895
3895
3899
3895
3903
3895
3895
3903
3903
3895
3891
3895
3899
3903
3901
3901
3879
3895
3902
3895
3891
3895
3895
3895
3899
3891
3891
3890
3895
3895
3891
3891
3887
3891
3891
3891
3891
3887
3891
3889
3891
3891
3883
3887
3887
3887
3883
3943
3887
3887
3883
3886
3887
3887
3871
3887
3887
3859
3883
3879
3875
3871
3879
3871
3991
3871
3871
3851
3871
3871
3867
3863
3871
3867
3867
3871
3867
3859
3871
3863
3863
3863
3855
3863
3857
3857
3799
3857
3853
3857
3793
3855
3851
3859
3783
3851
3847
3839
3839
3839
3815
3839
3839
3839
3831
3839
3835
3839
3831
3831
3835
3831
3831
3827
3827
3827
3829
3830
3827
3825
3823
3823
3823
3823
3815
3819
3814
3811
3815
3819
3807
3813
3813
3807
3807
3815
3807
3807
3811
3815
3807
3807
3807
3811
3807
3807
3807
3807
3825
3775
3803
3807
3807
3803
3799
3807
3799
3799
3799
3799
3793
3799
3799
3799
3803
3799
3799
3799
3799
3795
3791
3791
3791
3799
3773
3793
3791
3789
3791
3791
3791
3791
3787
3791
3791
3787
3795
3790
3783
3807
3783
3791
3775
3783
3779
3775
3775
3775
3783
3711
3767
3775
3765
3767
3759
3819
3762
3757
3755
3757
3757
3749
3775
3739
3739
3739
3735
3727
3727
3727
3723
3719
3693
3699
3703
3703
3679
3694
3693
3679
3675
3671
3667
3665
3655
3653
3645
3639
3633
3631
3615
3613
3603
3583
3583
3571
3567
3559
3551
3543
3533
3515
3505
3495
3491
3471
3455
3447
3431
3422
3411
3395
3387
3373
3359
3383
3327
3315
3295
3281
3267
3253
3295
3231
3213
3199
3187
3173
3163
3151
3145
3127
3123
3115
3095
3089
3071
3063
3059
3055
3045
3031
2991
3024
3023
3025
3019
3011
3005
3007
2999
3007
2998
2999
2995
2995
2999
2995
2999
3005
3007
3007
3010
3019
3019
3025
3035
3037
3045
3062
3071
3071
3101
3107
3122
3143
3159
3175
3183
3223
3243
3263
3303
3327
3351
3407
3435
3463
3527
3566
3605
3691
3735
3775
3831
3927
3983
4031
4095
4095
4095
4095
4095
4095
4095
4095
4095
4095
4095
4095
4095
4095
4095
4095
4095
4095
4095
4095
4095
4095
4095
4095
4095
4095
4095
4095
4095
4095
4095
4095
4095
4095
4095
4095
4095
4095
4095
4095
4095
4095
4095
4095
4095
4095
4095
4095
4095
4095
4095
4095
4095
4095
4095
4095
4095
4095
4095
4095
4095
4095
4095
4095
4095
4095
4095
4095
4095
4095
4095
4095
4095
4095
4095
4095
4095
4095
4095
4095
4095
4095
4095
4095
4095
4095
4095
4095
4095
4095
4095
4095
4095
4095
4095
4095
4095
4095
4095
4095
4095
4095
4095
4095
4095
4095
4095
4095
4095
4095
4095
4095
4095
4095
4095
4095
4095
4095
4095
4095
4095
4095
4095
4095
4095
4095
4095
4095
4095
4095
4095
4095
4095
4095
4095
4095
4095
4095
4095
4095
4095
4095
4095
4095
4095
4095
4095
4095
4095
4095
4095
4095
4095
4095
4095
4095
4095
4095
4095
4079
4023
3995
3967
3903
3883
3839
3783
3739
3715
3655
3619
3583
3569
3519
3494
3455
3419
3407
3383
3351
3407
3318
3291
3281
3271
3247
3239
3229
3223
3214
3207
3199
3199
3197
3191
3187
3187
3186
3190
3190
3191
3199
3199
3199
3199
3207
3229
3215
3217
3223
3229
3231
3231
3239
3245
3239
3249
3247
3250
3251
3255
3255
3251
3254
3255
3250
3255
3251
3251
3247
3247
3247
3239
3239
3231
3231
3238
3223
3217
3215
3207
3207
3203
3197
3191
3191
3185
3185
3183
3183
3173
3239
3171
3167
3167
3165
3151
3163
3155
3157
3155
3155
3155
3155
3155
3142
3155
3151
3151
3151
3150
3151
3151
3151
3147
3143
3147
3149
3143
3143
3147
3143
3139
3135
3139
3135
3134
3131
3127
3126
3123
3121
3119
3123
3115
3110
3110
3103
3107
3102
3099
3099
3095
3095
3091
3089
3089
3087
3071
3099
3071
3071
3071
3071
3071
3071
3071
3071
3071
3071
3071
3071
3071
3070
3067
3069
3063
3063
3056
3007
3055
3055
3051
3039
3039
3037
3031
3031
3027
3023
3023
3019
3007
3007
3007
3024
3003
2997
2997
2991
2991
2987
2982
2983
2983
2975
2963
2975
2975
2975
2977
2975
2975
2975
2975
2975
2973
2973
2975
2975
2974
2975
2971
2967
2971
2964
2963
2963
2963
2961
2959
2957
2951
2951
2947
2943
2943
2939
2933
2935
2931
2927
2927
2927
2919
2922
2917
2911
2911
2911
2911
2935
2992
2907
2903
2907
2896
2901
2902
2899
2895
2899
2897
2886
2895
2901
2891
2891
2887
2883
2881
2879
2927
2867
2865
2862
2859
2851
2853
2837
2837
2832
2827
2819
2815
2815
2807
2807
2799
2799
2791
2791
2791
2789
2787
2786
2787
2783
2779
2783
2781
2779
2775
2775
2778
2727
2771
2769
2768
2765
2759
2755
2751
2749
2743
2751
2735
2727
2725
2723
2715
2709
2707
2703
2767
2694
2691
2687
2687
2679
2678
2678
2737
2671
2671
2666
2667
2663
2663
2661
2658
2655
2655
2655
2655
2647
2651
2653
2647
2647
2641
2640
2635
2635
2627
2624
2624
2621
2615
2613
2611
2608
2603
2603
2598
2597
2591
2589
2582
2582
2581
2559
2559
2559
2559
2559
2559
2559
2559
2559
2559
2556
2555
2557
2557
2555
2554
2546
2555
2551
2551
2591
2547
2547
2544
2544
2544
2537
2543
2538
2538
2533
2533
2527
2527
2496
2527
2527
2527
2527
2521
2527
2525
2527
2527
2529
2533
2535
2537
2541
2543
2543
2545
2544
2547
2547
2551
2551
2551
2551
2551
2551
2547
2547
2544
2546
2547
2535
2546
2545
2547
2547
2545
2546
2546
2547
2549
2547
2550
2551
2550
2553
2547
2557
2557
2547
2559
2559
2559
2559
2559
2559
2559
2559
2559
2559
2559
2559
2559
2559
2559
2559
2555
2555
2551
2551
2531
2547
2547
2545
2544
2542
2549
2531
2550
2547
2549
2553
2551
2555
2551
2555
2558
2551
2551
2554
2550
2547
2549
2546
2543
2544
2542
2539
2531
2531
2527
2525
2519
2516
2513
2512
2509
2505
2506
2499
2499
2497
2495
2496
2495
2494
2495
2495
2480
2495
2469
2495
2495
2492
2491
2491
2489
2483
2486
2480
2477
2479
2471
2467
2466
2463
2457
2455
2454
2449
2448
2446
2447
2429
2439
2439
2435
2435
2434
2435
2435
2435
2437
2436
2437
2435
2435
2437
2434
2433
2433
2429
2431
2429
2423
2423
2416
2415
2413
2405
2399
2399
2395
2391
2387
2384
2384
2363
2382
2379
2375
2381
2378
2379
2379
2375
2375
2383
2375
2374
2375
2373
2373
2373
2369
2372
2367
2367
2365
2358
2358
2366
2353
2352
2351
2347
2343
2343
2343
2338
2339
2331
2335
2335
2335
2335
2335
2337
2338
2334
2335
2334
2334
2331
2331
2327
2327
2322
2319
2319
2318
2311
2311
2309
2303
2299
2295
2295
2287
2295
2291
2287
2291
2291
2291
2289
2291
2291
2294
2293
2295
2294
2294
2295
2289
2289
2288
2287
2282
2283
2277
2273
2271
2266
2263
2255
2256
2256
2253
2247
2243
2242
2243
2240
2240
2237
2239
2237
2237
2240
2238
2238
2241
2239
2239
2241
2239
2237
2238
2231
2227
2224
2223
2223
2219
2208
2191
2205
2203
2199
2194
2197
2195
2199
2199
2202
2199
2209
2209
2209
2213
2219
2223
2224
2230
2237
2239
2243
2250
2253
2256
2269
2271
2279
2291
2299
2305
2320
2327
2331
2347
2351
2351
2321
2357
2363
2363
2351
2359
2353
2351
2348
2339
2327
2321
2318
2303
2297
2288
2271
2263
2256
2247
2235
2226
2223
2211
2203
2193
2191
2187
2181
2176
2175
2171
2170
2163
2154
2159
2154
2151
2147
2138
2132
2129
2123
2117
2113
2108
2098
2097
2093
2083
2085
2081
2077
2071
2075
2095
2075
2073
2075
2073
2077
2075
2067
2077
2075
2071
2069
2070
2064
2057
2061
2054
2045
2069
2039
2032
2032
2029
2031
2029
2031
2029
2030
2031
2033
2031
2035
2039
2041
2039
2042
2039
2039
2038
2034
2033
2032
2029
2027
2020
2018
2011
2007
2005
1997
2000
2000
2000
2000
2003
2001
2003
2005
2094
2003
2002
2003
2003
2001
2000
1998
1979
1990
1984
1982
1971
1962
1955
1938
1926
1916
1904
1871
1849
1829
1782
1754
1727
1677
1647
1618
1580
1557
1535
1511
1498
1495
1491
1497
1504
1519
1552
1578
1605
1680
1727
1776
1904
1970
2047
2211
2309
2429
2499
2703
2801
2909
3121
3247
3403
3623
3762
3899
4095
4095
4095
4095
4095
4095
4095
4095
4095
4087
3919
3807
3695
3519
3327
3210
2992
2891
2851
2625
2544
2469
2401
2288
2239
2193
2130
2103
2082
2047
2054
2017
2017
2007
2001
1997
1987
1982
1975
1966
1955
1950
1937
1929
1934
1909
1904
1902
1891
1888
1883
1808
1872
1869
1863
1861
1854
1851
1852
1843
1842
1844
1840
1840
1840
1840
1840
1843
1840
1840
1819
1840
1838
1838
1839
1833
1825
1827
1819
1821
1814
1812
1808
1808
1807
1806
1802
1804
1805
1804
1808
1808
1809
1811
1811
1809
1815
1815
1815
1811
1808
1808
1805
1798
1792
1789
1787
1783
1781
1779
1779
1792
1784
1787
1789
1793
1792
1795
1795
1799
1798
1796
1796
1795
1792
1791
1791
1783
1779
1776
1776
1772
1766
1771
1767
1769
1765
1771
1775
1771
1772
1765
1767
1771
1775
1770
1767
1769
1762
1763
1758
1758
1753
1753
1751
1746
1749
1744
1746
1746
1746
1746
1747
1750
1746
1746
1743
1779
1737
1735
1733
1728
1728
1727
1715
1714
1711
1708
1708
1703
1701
1699
1699
1713
1699
1698
1693
1693
1691
1686
1682
1659
1671
1667
1690
1654
1651
1648
1639
1635
1632
1631
1629
1627
1627
1625
1625
1625
1629
1625
1628
1628
1624
1622
1658
1616
1611
1606
1600
1599
1598
1594
1594
1595
1593
1597
1598
1600
1600
1610
1602
1600
1606
1612
1609
1607
1606
1601
1600
1600
1595
1590
1591
1590
1593
1596
1597
1601
1601
1609
1616
1619
1627
1636
1648
1643
1646
1649
1649
1653
1653
1655
1662
1661
1664
1664
1667
1670
1677
1680
1685
1691
1699
1707
1734
1717
1725
1724
1728
1728
1728
1730
1728
1765
1729
1729
1729
1731
1735
1741
1743
1749
1751
1759
1761
1747
1767
1770
1773
1770
1766
1767
1765
1764
1762
1759
1755
1730
1753
1751
1750
1762
1753
1750
1758
1777
1757
1754
1754
1767
1751
1751
1750
1750
1746
1747
1745
1744
1742
1740
1731
1734
1733
1735
1738
1739
1744
1744
1744
1744
1737
1744
1744
1741
1740
1735
1732
1729
1728
1728
1797
1726
1726
1723
1722
1723
1723
1726
1726
1727
1728
1727
1725
1727
1727
1723
1719
1717
1712
1712
1712
1711
1712
1712
1712
1713
1717
1717
1721
1722
1724
1719
1718
1722
1715
1715
1772
1708
1705
1701
1701
1697
1697
1643
1702
1703
1704
1709
1710
1674
1712
1713
1713
1712
1711
1709
1707
1700
1697
1695
1693
1683
1683
1682
1680
1681
1686
1682
1685
1683
1687
1690
1691
1687
1687
1686
1680
1680
1679
1674
1669
1666
1664
1665
1664
1663
1660
1663
1675
1664
1664
1661
1657
1651
1648
1647
1640
1634
1629
1630
1628
1623
1626
1627
1623
1632
1631
1632
1637
1642
1641
1640
1644
1642
1637
1642
1634
1632
1632
1630
1633
1615
1650
1663
1687
1698
1712
1742
1752
1763
1780
1783
1789
1789
1777
1776
1767
1746
1741
1728
1711
1658
1693
1679
1670
1664
1657
1648
1644
1626
1618
1615
1606
1593
1588
1580
1565
1555
1535
1534
1529
1523
1519
1516
1519
1515
1513
1419
1508
1504
1502
1501
1492
1489
1488
1477
1473
1472
1465
1465
1465
1461
1466
1469
1472
1438
1481
1478
1484
1477
1478
1472
1463
1457
1449
1444
1456
1432
1427
1425
1427
1425
1432
1366
1428
1427
1426
1424
1424
1422
1408
1409
1408
1397
1394
1392
1390
1383
1385
1381
1376
1374
1364
1354
1344
1325
1276
1241
1204
1120
1076
1032
987
928
905
892
880
885
896
912
944
1038
1095
1168
1344
1449
1568
1813
1939
2075
2319
2423
2559
2675
2895
2999
3103
3278
3327
3351
3299
3227
3137
2919
2799
2677
2417
2288
2161
2035
1823
1725
1643
1507
1458
1424
1382
1366
1365
1350
1344
1337
1320
1306
1296
1281
1252
1236
1218
1204
1192
1184
1172
1168
1167
1168
1165
1168
1168
1168
1168
1168
1159
1154
1147
1136
1127
1121
1104
1104
1114
1091
1090
1089
1091
1093
1094
1096
1095
1091
1089
1088
1084
1080
1070
1072
1063
1059
1056
1052