1588
1555
1501
1532
3807
1669
1530
1532
1488
1517
1511
1471
1435
1441
1467
1516
1568
1566
1561
1552
1552
1576
1559
1600
1631
1662
1606
1621
1645
1690
1829
1705
1699
1680
1680
1682
1437
2221
2831
1791
1712
1723
1739
1742
1722
1699
1684
1691
1735
1763
1771
1756
1746
1754
1749
1762
1782
1771
1776
1770
1803
1782
1995
1806
1797
1777
1776
1758
1308
3303
2075
1799
1741
1743
1735
1728
1712
1687
1680
1697
1728
1745
1726
1701
1706
1692
1696
1695
1694
1709
1699
1713
1903
1748
1675
1680
1675
1659
1264
2411
2535
1734
1648
1658
1648
1631
1670
1652
1658
1658
1686
1737
1730
1731
1719
1714
1712
1751
1763
1776
1845
2015
1858
1809
1813
1833
1824
1438
3315
2275
1902
1855
1846
1855
1962
1907
1823
1807
1802
1857
1899
1899
1889
1898
1903
1898
1913
1916
1953
2093
2011
1911
1887
1877
1871
1798
1885
4047
1958
1844
1825
1809
1808
1790
1764
1728
1695
1726
1794
1815
1802
1808
1889
1806
1801
1802
1794
1831
1996
1862
1776
1772
1749
1740
1584
2155
3409
1821
1715
1695
1699
1691
1680
1653
1608
1602
1630
1690
1712
1706
1703
1709
1708
1711
1711
1711
1712
1712
1773
1712
1819
1804
1712
1702
1681
1689
1664
1391
4095
1815
1681
1663
1662
1654
1654
1629
1591
1570
1583
1645
1696
1702
1698
1713
1723
1728
1733
1735
1744
1744
1744
1748
1755
1758
1776
1767
1808
1923
1807
1775
1775
1776
1771
1765
1472
4095
1936
1786
1761
1759
1757
1748
1728
1694
1675
1680
1738
1798
1805
1811
1819
1826
1817
1830
1840
1838
1841
1840
1837
1839
1840
1842
1761
1842
1845
1877
1968
1886
1840
1833
1827
1821
1799
1535
4095
1963
1822
1795
1787
1783
1776
1739
1710
1680
1680
1725
1778
1795
1795
1792
1790
1789
1787
1798
1805
1806
1804
1794
1789
1820
1787
1780
1787
1778
1840
1952
1798
1775
1757
1759
1744
1516
2387
3031
1860
1731
1712
1708
1707
1682
1664
1632
1611
1635
1680
1719
1720
1725
1721
1725
1717
1717
1737
1738
1738
1712
1735
1754
1745
1750
1751
1782
1863
1789
1753
1748
1742
1742
1697
1563
4079
1872
1738
1714
1712
1712
1708
1697
1659
1642
1648
1690
1743
1756
1747
1747
1745
1747
1757
1766
1790
1787
1734
1787
1786
1799
1789
1793
1836
1917
1842
1802
1801
1788
1785
1743
1584
4095
1905
1779
1759
1759
1749
1751
1737
1707
1680
1690
1730
1778
1799
1804
1795
1792
1791
1804
1814
1833
1815
1905
1817
1814
1813
1816
1813
1827
1853
1963
1827
1808
1811
1803
1797
1391
3061
2411
1862
1775
1767
1770
1766
1757
1735
1714
1723
1749
1792
1794
1779
1779
1779
1776
1778
1785
1759
1798
1782
1794
1799
1781
1776
1777
1806
1909
1790
1769
1760
1757
1744
1309
3071
2222
1798
1721
1702
1701
1692
1680
1653
1645
1648
1679
1691
1682
1681
1650
1657
1648
1650
1655
1664
1675
1706
1646
1651
1668
1744
1684
1623
1623
1637
1623
1582
1472
3473
1721
1614
1600
1603
1600
1616
1600
1600
1613
1616
1654
1668
1649
1657
1638
1648
1663
1677
1691
1707
1725
1835
1855
1769
1748
1723
1733
1713
1450
3827
1914
1783
1763
1775
1796
1794
1799
1795
1801
1827
1877
1906
1915
1920
1922
1926
1936
1957
1975
1982
1989
2151
2071
1955
1959
1949
1943
1899
1773
4095
1984
1918
1903
1897
1893
1885
1861
1837
1824
1851
1904
1918
1911
1895
1891
1899
1891
1894
1883
1875
1887
2023
1968
1862
1855
1846
1830
1809
1470
4095
1918
1815
1775
1766
1759
1745
1730
1653
1689
1712
1759
1767
1755
1733
1740
1732
1731
1730
1728
1721
1722
1715
1731
1758
1847
1712
1703
1685
1681
1674
1232
3207
2097
1695
1633
1616
1619
1606
1602
1569
1554
1580
1616
1650
1648
1635
1636
1644
1647
1643
1648
1650
1664
1658
1661
1664
1673
1770
1717
1664
1655
1650
1643
1637
1253
3761
1826
1660
1614
1616
1627
1614
1608
1598
1591
1616
1659
1688
1681
1665
1666
1679
1680
1679
1687
1695
1721
1719
1719
1772
1936
1758
1746
1735
1730
1738
1572
2083
3147
1863
1770
1753
1765
1779
1782
1783
1779
1782
1815
1870
1890
1890
1890
1892
1890
1900
1918
2009
1925
1929
1922
1937
2091
1993
1912
1894
1872
1863
1835
1488
4095
2019
1830
1793
1787
1779
1776
1746
1712
1676
1681
1730
1779
1772
1766
1762
1754
1762
1759
1760
1754
1765
1767
1679
1775
1957
1774
1737
1726
1712
1705
1588
1953
3567
1804
1683
1677
1665
1670
1659
1635
1603
1590
1616
1680
1703
1699
1694
1703
1712
1711
1710
1717
1726
1728
1731
1739
1735
1741
1767
1888
1764
1744
1745
1739
1744
1612
2063
3535
1871
1745
1725
1737
1731
1725
1702
1675
1668
1702
1760
1798
1803
1794
1805
1811
1813
1813
1837
1840
1840
1840
1846
1850
1857
1868
1904
1999
1865
1858
1855
1855
1844
1582
2517
3071
1942
1835
1815
1823
1826
1809
1788
1767
1777
1797
1850
1850
1846
1840
1840
1835
1836
1840
1846
1843
1840
1850
1845
1840
1843
1836
1857
1985
1842
1813
1809
1798
1794
1705
1808
3703
1858
1751
1733
1742
1729
1728
1709
1690
1680
1695
1738
1750
1743
1730
1728
1722
1723
1731
1731
1735
1733
1719
1719
1726
1715
1723
1746
1807
1715
1697
1685
1678
1677
1248
2939
2195
1727
1645
1638
1619
1616
1615
1600
1591
1593
1625
1673
1668
1646
1648
1648
1632
1648
1654
1666
1687
1695
1685
1742
1885
1722
1702
1697
1691
1695
1359
2531
2591
1818
1729
1729
1744
1755
1770
1765
1753
1763
1792
1842
1851
1853
1863
1857
1877
1876
1894
1910
1915
1908
1923
2062
2038
1919
1911
1895
1881
1860
1521
4095
2069
1881
1855
1847
1837
1838
1814
1778
1755
1760
1810
1859
1869
1857
1862
1856
1863
1855
1856
1864
1855
1871
1945
1990
1857
1826
1812
1806
1793
1361
3334
2332
1825
1750
1739
1728
1723
1713
1677
1642
1630
1676
1730
1737
1734
1729
1728
1731
1722
1725
1725
1728
1724
1723
1753
1856
1783
1643
1670
1678
1671
1650
1283
3975
1845
1664
1631
1621
1621
1617
1593
1566
1529
1534
1593
1634
1661
1651
1654
1661
1661
1664
1674
1681
1680
1682
1691
1695
1730
1872
1712
1686
1684
1664
1717
1467
2207
3019
1808
1682
1680
1677
1686
1680
1662
1629
1621
1664
1723
1747
1760
1765
1767
1777
1787
1799
1809
1808
1823
1819
1834
1839
1874
1985
1857
1840
1845
1839
1830
1526
2783
2624
1922
1822
1811
1824
1821
1813
1795
1769
1783
1807
1843
1853
1850
1851
1844
1845
1869
1874
1875
1872
1872
1872
1872
1889
1979
1917
1851
1851
1841
1830
1805
1454
4075
1924
1817
1808
1763
1759
1766
1744
1719
1709
1714
1746
1773
1761
1745
1742
1727
1712
1738
1742
1746
1747
1738
1735
1826
1840
1728
1728
1719
1696
1680
1270
3184
2023
1718
1677
1668
1666
1677
1614
1666
1663
1668
1698
1734
1737
1744
1745
1760
1761
1791
1807
1815
1814
1841
2013
1879
1808
1809
1807
1783
1755
1604
4079
1904
1775
1758
1761
1765
1754
1735
1706
1678
1686
1745
1781
1879
1701
1794
1792
1798
1807
1813
1814
1808
1856
1997
1817
1792
1783
1773
1774
1467
2639
2855
1842
1743
1728
1725
1726
1712
1680
1633
1616
1656
1730
1754
1750
1747
1747
1759
1759
1771
1707
1759
1774
1793
1932
1834
1761
1749
1749
1731
1725
1338
4071
1919
1731
1708
1697
1695
1695
1669
1638
1602
1609
1656
1723
1728
1732
1726
1731
1729
1735
1744
1755
1747
1747
1767
1794
1936
1761
1744
1741
1733
1728
1424
2523
2750
1815
1712
1711
1708
1713
1703
1677
1650
1658
1680
1727
1759
1750
1755
1751
1756
1759
1770
1784
1772
1773
1793
1811
1908
1863
1783
1761
1781
1841
1756
1358
3807
1926
1787
1757
1747
1754
1755
1748
1728
1710
1717
1752
1785
1782
1761
1776
1776
1773
1789
1789
1793
1791
1799
1787
1805
1986
1808
1766
1760
1754
1749
1584
2043
3055
1830
1718
1693
1693
1687
1680
1674
1650
1653
1685
1719
1714
1709
1697
1703
1707
1703
1728
1733
1729
1739
1873
1821
1743
1742
1723
1728
1726
1365
3519
1969
1784
1757
1771
1803
1819
1875
1779
1784
1753
1801
1855
1862
1851
1853
1863
1883
1893
1899
1909
1907
1969
2071
1906
1881
1873
1862
1855
1488
3071
2677
1915
1834
1819
1801
1807
1789
1747
1712
1693
1736
1799
1750
1822
1811
1813
1803
1809
1808
1814
1821
1842
2018
1859
1798
1787
1776
1770
1733
1501
4095
1867
1742
1714
1711
1707
1698
1675
1632
1598
1612
1679
1719
1731
1729
1728
1728
1728
1728
1737
1737
1715
1735
1780
1904
1728
1715
1712
1693
1686
1398
2559
2755
1773
1680
1670
1662
1649
1641
1610
1563
1557
1598
1659
1689
1695
1697
1691
1699
1708
1712
1719
1728
1718
1685
1799
1936
1737
1728
1725
1713
1699
1427
2446
2815
1814
1701
1697
1706
1707
1690
1670
1645
1644
1680
1725
1755
1764
1758
1755
1765
1774
1786
1793
1798
1797
1803
1833
2010
1821
1801
1755
1796
1776
1607
2137
3127
1876
1776
1771
1773
1765
1763
1741
1728
1719
1740
1789
1805
1797
1783
1791
1792
1807
1810
1819
1809
1805
1821
1834
2005
1825
1803
1807
1795
1780
1488
2368
2807
1762
1743
1725
1734
1728
1728
1712
1696
1701
1722
1760
1754
1744
1735
1728
1730
1725
1744
1745
1755
1775
1968
1775
1732
1728
1722
1701
1533
1995
2966
1790
1687
1677
1680
1689
1674
1703
1605
1680
1712
1763
1774
1776
1775
1791
1797
1820
1834
1850
1866
1999
1936
1846
1843
1830
1815
1801
1463
4095
1989
1813
1794
1781
1787
1777
1749
1714
1687
1696
1751
1795
1802
1822
1735
1792
1794
1792
1802
1802
1830
1999
1824
1767
1755
1737
1729
1582
2083
3410
1819
1709
1680
1685
1680
1664
1643
1602
1583
1603
1680
1712
1717
1714
1713
1714
1715
1719
1719
1725
1664
1747
1844
1806
1721
1713
1707
1701
1687
1258
3655
2023
1717
1669
1664
1664
1667
1651
1611
1584
1585
1643
1702
1725
1722
1721
1734
1738
1744
1745
1759
1765
1760
1764
1775
1815
1955
1831
1833
1770
1763
1762
1684
1839
3743
1898
1773
1754
1750
1769
1753
1737
1701
1694
1722
1783
1814
1818
1820
1825
1826
1825
1833
1840
1840
1842
1841
1855
1847
1855
1859
1895
2014
1879
1908
1803
1843
1851
1726
1931
3635
1943
1830
1808
1810
1808
1803
1781
1758
1754
1778
1810
1835
1825
1815
1808
1806
1803
1808
1812
1810
1807
1797
1805
1797
1808
1899
1819
1777
1770
1782
1714
1734
1306
3515
1990
1744
1671
1664
1634
1630
1627
1603
1597
1593
1622
1655
1647
1641
1616
1603
1605
1610
1629
1622
1625
1634
1673
1823
1648
1623
1610
1616
1588
1360
2095
2723
1725
1654
1622
1634
1643
1639
1651
1652
1664
1695
1744
1751
1754
1759
1773
1790
1817
1840
1867
1882
1946
2087
1920
1905
1903
1894
1898
1518
3061
2583
1977
1883
1874
1882
1887
1879
1856
1820
1808
1845
1898
1924
1916
1927
1904
1903
1907
1915
1920
1931
2047
2001
1887
1871
1856
1843
1828
1455
4095
2037
1826
1781
1767
1765
1758
1723
1689
1649
1648
1698
1756
1762
1757
1750
1805
1747
1743
1751
1745
1742
1777
1954
1758
1722
1706
1697
1690
1466
2326
3003
1778
1661
1646
1648
1642
1619
1600
1557
1552
1559
1626
1681
1675
1653
1699
1687
1744
1714
1696
1745
1743
1763
1760
1871
1873
1729
1705
1776
1744
1744
1317
3551
2224
1803
1745
1723
1787
1742
1730
1669
1646
1632
1700
1771
1808
1795
1772
1793
1811
1829
1840
1839
1835
1840
1808
1869
2012
1879
1835
1837
1843
1821
1826
1389
4095
2035
1803
1763
1776
1776
1769
1774
1693
1648
1626
1680
1759
1787
1789
1777
1792
1757
1790
1781
1803
1774
1799
1786
1757
1791
1872
1842
1779
1755
1803
1733
1741
1263
3771
2131
1798
1742
1697
1694
1683
1710
1714
1612
1632
1648
1693
1726
1711
1715
1719
1716
1728
1741
1737
1751
1730
1742
1727
1782
1818
1757
1728
1728
1680
1736
1746
1127
3951
1904
1740
1696
1669
1650
1689
1674
1632
1620
1651
1645
1707
1680
1698
1700
1670
1657
1725
1706
1723
1711
1696
1722
1733
1872
1791
1718
1701
1712
1699
1648
1429
3827
1799
1714
1648
1671
1646
1664
1681
1639
1659
1648
1699
1729
1743
1711
1708
1721
1719
1759
1775
1817
1809
1906
2000
1840
1846
1835
1853
1827
1417
3327
2447
1967
1872
1840
1856
1887
1862
1914
1856
1803
1813
1919
1920
1966
1955
1955
1991
1953
1979
1968
1949
2037
2159
1995
1962
1953
1909
1911
1427
3535
2631
1953
1857
1806
1818
1819
1811
1728
1708
1630
1751
1791
1790
1815
1795
1798
1783
1782
1789
1788
1801
1882
1904
1754
1727
1732
1705
1670
1203
3472
2129
1698
1598
1616
1611
1597
1613
1601
1535
1561
1627
1653
1657
1648
1665
1619
1650
1642
1649
1655
1650
1706
1645
1687
1872
1697
1634
1636
1642
1600
1276
2526
2623
1728
1601
1603
1595
1595
1595
1600
1535
1576
1593
1645
1627
1650
1645
1660
1678
1691
1689
1712
1712
1705
1726
1718
1760
1794
1747
1765
2030
1731
1721
1756
1778
1744
1456
2611
3005
1850
1699
1701
1713
1712
1667
1669
1659
1668
1659
1746
1776
1758
1755
1733
1777
1763
1748
1728
1781
1769
1763
1765
1797
1803
1854
1885
1790
1815
1766
1777
1789
1449
2497
2911
1875
1761
1758
1765
1730
1741
1758
1732
1759
1829
1799
1811
1812
1808
1808
1857
1839
1845
1862
1884
1877
1908
1913
2077
1932
1879
1898
1841
1872
1837
1739
4095
1984
1879
1826
1843
1847
1807
1840
1811
1826
1823
1850
1902
1885
1857
1902
1903
1890
1861
1886
1888
1871
1892
1887
1904
1916
2032
1894
1856
1814
1831
1831
1750
1666
4095
1860
1761
1744
1729
1703
1701
1686
1643
1637
1648
1725
1712
1713
1690
1687
1680
1686
1669
1677
1683
1673
1668
1674
1664
1668
1685
1755
1813
1715
1722
1677
1690
1680
1296
2751
2774
1871
1664
1653
1643
1631
1647
1607
1552
1579
1601
1683
1616
1648
1617
1634
1668
1696
1662
1646
1625
1616
1632
1616
1616
1645
1638
1648
1733
1635
1616
1637
1628
1597
1232
2621
2559
1729
1608
1603
1581
1604
1582
1535
1575
1587
1585
1664
1681
1640
1634
1675
1652
1625
1688
1665
1717
1668
1694
1714
1680
1806
1904
1751
1728
1730
1739
1691
1568
2064
3279
1819
1774
1759
1779
1729
1789
1802
1779
1813
1819
1871
1879
1887
1915
1890
1878
1893
1910
1937
1958
1984
1899
1935
1986
2178
2023
1955
1968
1953
1904
1890
1713
4095
2010
1931
1903
1908
1856
1904
1871
1839
1856
1843
1925
1954
1939
1923
1907
1913
1919
1931
1926
1904
1898
1889
1904
1904
1884
1925
2071
1902
1862
1871
1831
1823
1713
1809
4047
1861
1760
1725
1718
1677
1697
1678
1648
1646
1662
1699
1712
1680
1664
1651
1648
1650
1659
1651
1645
1653
1638
1633
1648
1616
1787
1681
1619
1632
1630
1616
1605
1221
4055
1715
1618
1601
1569
1569
1583
1535
1552
1532
1568
1616
1637
1623
1603
1616
1605
1610
1621
1603
1627
1641
1646
1648
1645
1728
1795
1616
1654
1649
1666
1639
1222
2911
2270
1744
1660
1650
1659
1665
1673
1669
1680
1678
1725
1763
1765
1755
1757
1757
1758
1791
1792
1819
1849
1847
1922
2063
1911
1888
1872
1899
1887
1497
3143
2759
2003
1905
1923
1907
1911
1920
1890
1874
1885
1919
1983
1991
1983
1974
1979
1979
1985
2002
1995
1999
1987
2016
2227
2015
1970
1968
1951
1936
1791
2139
4095
2007
1905
1877
1857
1839
1791
1797
1764
1726
1755
1829
1843
1837
1830
1804
1807
1802
1792
1776
1776
1776
1769
1765
1791
1857
1855
1733
1712
1700
1697
1643
1217
3723
2023
1693
1617
1606
1594
1595
1535
1520
1508
1506
1531
1610
1635
1606
1616
1609
1613
1614
1617
1614
1629
1608
1619
1623
1618
1635
1616
1675
1803
1654
1626
1637
1626
1633
1568
1574
3951
1771
1616
1610
1614
1629
1625
1600
1531
1556
1603
1666
1697
1714
1701
1691
1709
1726
1738
1729
1749
1749
1779
1776
1786
1783
1792
1818
1842
1909
1840
1820
1820
1815
1819
1569
2480
3313
1951
1811
1818
1831
1815
1808
1779
1776
1809
1811
1859
1899
1877
1871
1871
1854
1855
1874
1884
1888
1895
1871
1878
1919
1872
1897
2027
1911
1869
1871
1881
1862
1684
2227
3397
1952
1825
1806
1797
1823
1828
1813
1833
1729
1792
1913
1854
1817
1827
1783
1787
1801
1789
1838
1808
1855
1863
1991
1937
1840
1833
1840
1819
1792
1380
4083
2057
1822
1827
1770
1801
1773
1767
1734
1709
1680
1769
1782
1801
1790
1729
1792
1760
1773
1792
1777
1791
1775
1785
1984
1799
1744
1727
1711
1691
1424
2527
2967
1786
1657
1659
1648
1648
1648
1590
1552
1535
1535
1655
1683
1685
1658
1655
1658
1680
1669
1632
1682
1808
1745
1905
1731
1683
1665
1680
1664
1462
2259
3313
1760
1618
1655
1644
1663
1629
1568
1552
1476
1554
1642
1693
1679
1705
1737
1696
1709
1728
1727
1702
1744
1750
1825
1913
1829
1681
1813
1712
1735
1701
1389
4095
1885
1739
1732
1722
1714
1729
1709
1680
1660
1670
1778
1799
1780
1798
1786
1810
1790
1823
1827
1854
1837
1827
1822
1827
1840
2057
1823
1845
1840
1802
1841
1563
2363
3335
1951
1786
1808
1803
1819
1809
1761
1777
1746
1731
1843
1829
1804
1833
1818
1809
1814
1833
1801
1834
1850
1786
1807
1860
1994
1795
1799
1795
1757
1754
1296
2919
2451
1817
1693
1717
1677
1671
1681
1665
1618
1632
1681
1686
1665
1641
1621
1616
1615
1567
1604
1601
1614
1606
1580
1693
1710
1586
1573
1585
1575
1580
1136
3207
1919
1589
1610
1605
1570
1613
1632
1674
1645
1681
1722
1776
1785
1776
1838
1881
1908
1748
1280
986
769
586
429
288
160
64
32
16
16
44
33
20
28
32
32
25
24
24
24
25
40
36
42
32
22
32
32
32
32
32
32
32
36
32
26
32
32
36
35
48
66
33
32
36
48
56
48
48
48
48
52
52
48
48
44
48
1527
1607
1558
1243
916
676
478
320
192
96
48
32
28
25
57
16
28
32
33
40
40
44
42
40
44
48
44
44
44
48
42
48
44
40
36
36
32
25
32
32
48
20
16
48
16
16
22
24
24
26
32
26
32
32
36
32
32
26
64
32
21
24
25
36
1270
1905
1644
1602
1887
1885
1877
1813
1845
4095
1933
1893
1877
1872
1889
1885
1863
1858
1872
1904
1943
1956
1936
1933
1915
1915
1919
1923
1904
1922
1967
2085
1942
1927
1915
1917
1898
1466
3159
2689
1919
1847
1831
1837
1846
1792
1795
1809
1804
1886
1849
1854
1839
1824
1793
1808
1808
1794
1802
1804
1823
1778
1937
1791
1774
1737
1771
1328
1344
3121
2254
1555
1177
920
713
523
340
192
89
32
16
0
1370
1797
1584
1502
1488
1490
1508
1362
1594
3062
1520
1423
1399
1398
1389
1418
1410
1367
1392
1414
1473
1450
1427
1419
1420
1438
1457
1488
1522
1565
1750
1600
1568
1578
1590
1601
1298
2427
2634
1776
1705
1702
1721
1744
1743
1742
1742
1749
1786
1849
1861
1871
1859
1874
1872
1910
1921
1966
2128
2037
1962
1955
1951
1953
1920
1746
4095
2031
1917
1926
1936
1936
1938
1917
1891
1871
1905
1948
1972
1957
1947
1949
1950
1947
1947
1959
2007
2097
1959
1926
1919
1898
1886
1434
3663
2486
1901
1831
1809
1809
1813
1786
1767
1759
1765
1772
1799
1807
1786
1778
1773
1762
1764
1769
1786
1826
1914
1755
1734
1721
1706
1701
1224
3743
1993
1680
1646
1631
1629
1626
1602
1586
1556
1582
1618
1653
1643
1623
1634
1617
1680
1630
1637
1651
1661
1731
1734
1642
1649
1654
1659
1630
1232
4069
1776
1641
1607
1626
1622
1630
1616
1617
1616
1631
1669
1695
1689
1685
1680
1685
1702
1713
1744
1744
1748
1785
1903
1767
1783
1760
1769
1760
1310
3555
2141
1815
1757
1758
1766
1754
1767
1751
1744
1765
1797
1831
1822
1807
1797
1785
1793
1807
1833
1826
1811
1857
1985
1815
1791
1759
1772
1757
1266
3063
2191
1758
1664
1658
1697
1654
1674
1678
1668
1680
1694
1728
1712
1680
1680
1680
1693
1732
1733
1760
1932
1583
1152
